time,Trigger
0.0,0.00011444091796875
0.0005,0.0
0.001,0.0
0.0015,0.0006103515625
0.002,0.0006103515625
0.0025,0.00019073486328125
0.003,0.00019073486328125
0.0035,0.00011444091796875
0.004,0.00011444091796875
0.0045,0.00019073486328125
0.005,0.00019073486328125
0.0055,-3.814697265625e-05
0.006,-3.814697265625e-05
0.0065,0.0003814697265625
0.007,0.0003814697265625
0.0075,0.000152587890625
0.008,0.000152587890625
0.0085,0.00026702880859375
0.009,0.00026702880859375
0.0095,0.00030517578125
0.01,0.00030517578125
0.0105,0.00019073486328125
0.011,0.00019073486328125
0.0115,0.00064849853515625
0.012,0.00064849853515625
0.0125,0.0002288818359375
0.013,0.0002288818359375
0.0135,3.814697265625e-05
0.014,3.814697265625e-05
0.0145,0.0006866455078125
0.015,0.0006866455078125
0.0155,0.00019073486328125
0.016,0.00019073486328125
0.0165,0.00041961669921875
0.017,0.00041961669921875
0.0175,0.00019073486328125
0.018,0.00019073486328125
0.0185,0.0002288818359375
0.019,0.0002288818359375
0.0195,0.000457763671875
0.02,0.000457763671875
0.0205,0.00019073486328125
0.021,0.00019073486328125
0.0215,3.814697265625e-05
0.022,3.814697265625e-05
0.0225,0.00064849853515625
0.023,0.00064849853515625
0.0235,-3.814697265625e-05
0.024,-3.814697265625e-05
0.0245,0.00049591064453125
0.025,0.00049591064453125
0.0255,0.00026702880859375
0.026,0.00026702880859375
0.0265,0.0002288818359375
0.027,0.0002288818359375
0.0275,0.0
0.028,0.0
0.0285,0.00019073486328125
0.029,0.00019073486328125
0.0295,0.00057220458984375
0.03,0.00057220458984375
0.0305,0.00041961669921875
0.031,0.00041961669921875
0.0315,0.00034332275390625
0.032,0.00034332275390625
0.0325,0.000152587890625
0.033,0.000152587890625
0.0335,0.00049591064453125
0.034,0.00049591064453125
0.0345,0.0
0.035,0.0
0.0355,0.0
0.036,0.0
0.0365,0.000457763671875
0.037,0.000457763671875
0.0375,7.62939453125e-05
0.038,7.62939453125e-05
0.0385,3.814697265625e-05
0.039,3.814697265625e-05
0.0395,3.814697265625e-05
0.04,3.814697265625e-05
0.0405,0.00011444091796875
0.041,0.00011444091796875
0.0415,7.62939453125e-05
0.042,7.62939453125e-05
0.0425,0.0003814697265625
0.043,0.0003814697265625
0.0435,0.0003814697265625
0.044,0.0003814697265625
0.0445,0.00026702880859375
0.045,0.00026702880859375
0.0455,0.00019073486328125
0.046,0.00019073486328125
0.0465,0.00064849853515625
0.047,0.00064849853515625
0.0475,0.000152587890625
0.048,0.000152587890625
0.0485,0.00041961669921875
0.049,0.00041961669921875
0.0495,3.814697265625e-05
0.05,3.814697265625e-05
0.0505,0.00030517578125
0.051,0.00030517578125
0.0515,0.00011444091796875
0.052,0.00011444091796875
0.0525,3.814697265625e-05
0.053,3.814697265625e-05
0.0535,0.00041961669921875
0.054,0.00041961669921875
0.0545,0.000152587890625
0.055,0.000152587890625
0.0555,0.000152587890625
0.056,0.000152587890625
0.0565,7.62939453125e-05
0.057,7.62939453125e-05
0.0575,0.00030517578125
0.058,0.00030517578125
0.0585,0.00034332275390625
0.059,0.00034332275390625
0.0595,0.00041961669921875
0.06,0.00041961669921875
0.0605,0.00019073486328125
0.061,0.00019073486328125
0.0615,0.000152587890625
0.062,0.000152587890625
0.0625,3.814697265625e-05
0.063,3.814697265625e-05
0.0635,0.0
0.064,0.0
0.0645,0.00011444091796875
0.065,0.00011444091796875
0.0655,0.00011444091796875
0.066,0.00011444091796875
0.0665,0.00064849853515625
0.067,0.00064849853515625
0.0675,0.00011444091796875
0.068,0.00011444091796875
0.0685,3.814697265625e-05
0.069,3.814697265625e-05
0.0695,0.0
0.07,0.0
0.0705,0.000152587890625
0.071,0.000152587890625
0.0715,0.0002288818359375
0.072,0.0002288818359375
0.0725,0.00034332275390625
0.073,0.00034332275390625
0.0735,0.00041961669921875
0.074,0.00041961669921875
0.0745,0.0006866455078125
0.075,0.0006866455078125
0.0755,3.814697265625e-05
0.076,3.814697265625e-05
0.0765,0.00026702880859375
0.077,0.00026702880859375
0.0775,7.62939453125e-05
0.078,7.62939453125e-05
0.0785,0.00125885009765625
0.079,0.00125885009765625
0.0795,0.0003814697265625
0.08,0.0003814697265625
0.0805,0.0005340576171875
0.081,0.0005340576171875
0.0815,0.00030517578125
0.082,0.00030517578125
0.0825,-7.62939453125e-05
0.083,-7.62939453125e-05
0.0835,0.00011444091796875
0.084,0.00011444091796875
0.0845,0.00041961669921875
0.085,0.00041961669921875
0.0855,0.00019073486328125
0.086,0.00019073486328125
0.0865,0.00011444091796875
0.087,0.00011444091796875
0.0875,0.00019073486328125
0.088,0.00019073486328125
0.0885,0.0002288818359375
0.089,0.0002288818359375
0.0895,-0.00011444091796875
0.09,-0.00011444091796875
0.0905,0.00019073486328125
0.091,0.00019073486328125
0.0915,0.000152587890625
0.092,0.000152587890625
0.0925,0.00026702880859375
0.093,0.00026702880859375
0.0935,0.00034332275390625
0.094,0.00034332275390625
0.0945,3.814697265625e-05
0.095,3.814697265625e-05
0.0955,0.0002288818359375
0.096,0.0002288818359375
0.0965,7.62939453125e-05
0.097,7.62939453125e-05
0.0975,7.62939453125e-05
0.098,7.62939453125e-05
0.0985,0.00026702880859375
0.099,0.00026702880859375
0.0995,0.00011444091796875
0.1,0.00011444091796875
0.1005,0.00091552734375
0.101,0.00091552734375
0.1015,0.00064849853515625
0.102,0.00064849853515625
0.1025,0.0
0.103,0.0
0.1035,0.000152587890625
0.104,0.000152587890625
0.1045,0.00019073486328125
0.105,0.00019073486328125
0.1055,0.0
0.106,0.0
0.1065,0.0002288818359375
0.107,0.0002288818359375
0.1075,0.00011444091796875
0.108,0.00011444091796875
0.1085,7.62939453125e-05
0.109,7.62939453125e-05
0.1095,0.00118255615234375
0.11,0.00118255615234375
0.1105,0.00026702880859375
0.111,0.00026702880859375
0.1115,0.000457763671875
0.112,0.000457763671875
0.1125,0.00064849853515625
0.113,0.00064849853515625
0.1135,0.00041961669921875
0.114,0.00041961669921875
0.1145,0.000152587890625
0.115,0.000152587890625
0.1155,0.00026702880859375
0.116,0.00026702880859375
0.1165,-3.814697265625e-05
0.117,-3.814697265625e-05
0.1175,0.0002288818359375
0.118,0.0002288818359375
0.1185,0.0003814697265625
0.119,0.0003814697265625
0.1195,0.00019073486328125
0.12,0.00019073486328125
0.1205,0.00026702880859375
0.121,0.00026702880859375
0.1215,0.000152587890625
0.122,0.000152587890625
0.1225,7.62939453125e-05
0.123,7.62939453125e-05
0.1235,-3.814697265625e-05
0.124,-3.814697265625e-05
0.1245,0.0003814697265625
0.125,0.0003814697265625
0.1255,0.00041961669921875
0.126,0.00041961669921875
0.1265,0.00026702880859375
0.127,0.00026702880859375
0.1275,0.0
0.128,0.0
0.1285,3.814697265625e-05
0.129,3.814697265625e-05
0.1295,0.000152587890625
0.13,0.000152587890625
0.1305,7.62939453125e-05
0.131,7.62939453125e-05
0.1315,0.0
0.132,0.0
0.1325,0.00026702880859375
0.133,0.00026702880859375
0.1335,3.814697265625e-05
0.134,3.814697265625e-05
0.1345,3.814697265625e-05
0.135,3.814697265625e-05
0.1355,0.00011444091796875
0.136,0.00011444091796875
0.1365,3.814697265625e-05
0.137,3.814697265625e-05
0.1375,-0.0002288818359375
0.138,-0.0002288818359375
0.1385,0.00034332275390625
0.139,0.00034332275390625
0.1395,0.00034332275390625
0.14,0.00034332275390625
0.1405,0.00091552734375
0.141,0.00091552734375
0.1415,0.00026702880859375
0.142,0.00026702880859375
0.1425,-3.814697265625e-05
0.143,-3.814697265625e-05
0.1435,0.00041961669921875
0.144,0.00041961669921875
0.1445,0.0006103515625
0.145,0.0006103515625
0.1455,0.00011444091796875
0.146,0.00011444091796875
0.1465,0.0005340576171875
0.147,0.0005340576171875
0.1475,0.00019073486328125
0.148,0.00019073486328125
0.1485,0.00041961669921875
0.149,0.00041961669921875
0.1495,-3.814697265625e-05
0.15,-3.814697265625e-05
0.1505,3.814697265625e-05
0.151,3.814697265625e-05
0.1515,7.62939453125e-05
0.152,7.62939453125e-05
0.1525,7.62939453125e-05
0.153,7.62939453125e-05
0.1535,7.62939453125e-05
0.154,7.62939453125e-05
0.1545,0.0006866455078125
0.155,0.0006866455078125
0.1555,7.62939453125e-05
0.156,7.62939453125e-05
0.1565,0.00026702880859375
0.157,0.00026702880859375
0.1575,0.0006866455078125
0.158,0.0006866455078125
0.1585,7.62939453125e-05
0.159,7.62939453125e-05
0.1595,0.00019073486328125
0.16,0.00019073486328125
0.1605,0.00026702880859375
0.161,0.00026702880859375
0.1615,0.0003814697265625
0.162,0.0003814697265625
0.1625,0.0002288818359375
0.163,0.0002288818359375
0.1635,0.000152587890625
0.164,0.000152587890625
0.1645,0.000152587890625
0.165,0.000152587890625
0.1655,3.814697265625e-05
0.166,3.814697265625e-05
0.1665,0.0002288818359375
0.167,0.0002288818359375
0.1675,-0.00011444091796875
0.168,-0.00011444091796875
0.1685,0.00019073486328125
0.169,0.00019073486328125
0.1695,0.000152587890625
0.17,0.000152587890625
0.1705,7.62939453125e-05
0.171,7.62939453125e-05
0.1715,-3.814697265625e-05
0.172,-3.814697265625e-05
0.1725,0.00030517578125
0.173,0.00030517578125
0.1735,0.00041961669921875
0.174,0.00041961669921875
0.1745,0.00019073486328125
0.175,0.00019073486328125
0.1755,0.00030517578125
0.176,0.00030517578125
0.1765,0.000457763671875
0.177,0.000457763671875
0.1775,0.00026702880859375
0.178,0.00026702880859375
0.1785,0.00026702880859375
0.179,0.00026702880859375
0.1795,0.00030517578125
0.18,0.00030517578125
0.1805,3.814697265625e-05
0.181,3.814697265625e-05
0.1815,0.0
0.182,0.0
0.1825,-3.814697265625e-05
0.183,-3.814697265625e-05
0.1835,0.00064849853515625
0.184,0.00064849853515625
0.1845,0.0003814697265625
0.185,0.0003814697265625
0.1855,0.0006103515625
0.186,0.0006103515625
0.1865,0.0005340576171875
0.187,0.0005340576171875
0.1875,0.000152587890625
0.188,0.000152587890625
0.1885,0.00034332275390625
0.189,0.00034332275390625
0.1895,7.62939453125e-05
0.19,7.62939453125e-05
0.1905,7.62939453125e-05
0.191,7.62939453125e-05
0.1915,0.000152587890625
0.192,0.000152587890625
0.1925,3.814697265625e-05
0.193,3.814697265625e-05
0.1935,0.00041961669921875
0.194,0.00041961669921875
0.1945,0.00019073486328125
0.195,0.00019073486328125
0.1955,7.62939453125e-05
0.196,7.62939453125e-05
0.1965,0.00030517578125
0.197,0.00030517578125
0.1975,0.00034332275390625
0.198,0.00034332275390625
0.1985,0.00041961669921875
0.199,0.00041961669921875
0.1995,0.000152587890625
0.2,0.000152587890625
0.2005,-7.62939453125e-05
0.201,-7.62939453125e-05
0.2015,0.00110626220703125
0.202,0.00110626220703125
0.2025,0.00034332275390625
0.203,0.00034332275390625
0.2035,0.00011444091796875
0.204,0.00011444091796875
0.2045,0.000152587890625
0.205,0.000152587890625
0.2055,0.0006866455078125
0.206,0.0006866455078125
0.2065,0.000152587890625
0.207,0.000152587890625
0.2075,3.814697265625e-05
0.208,3.814697265625e-05
0.2085,0.00095367431640625
0.209,0.00095367431640625
0.2095,0.0003814697265625
0.21,0.0003814697265625
0.2105,7.62939453125e-05
0.211,7.62939453125e-05
0.2115,0.0005340576171875
0.212,0.0005340576171875
0.2125,-7.62939453125e-05
0.213,-7.62939453125e-05
0.2135,0.00026702880859375
0.214,0.00026702880859375
0.2145,0.00095367431640625
0.215,0.00095367431640625
0.2155,0.000152587890625
0.216,0.000152587890625
0.2165,0.00019073486328125
0.217,0.00019073486328125
0.2175,0.00030517578125
0.218,0.00030517578125
0.2185,7.62939453125e-05
0.219,7.62939453125e-05
0.2195,0.0
0.22,0.0
0.2205,0.00080108642578125
0.221,0.00080108642578125
0.2215,0.00030517578125
0.222,0.00030517578125
0.2225,7.62939453125e-05
0.223,7.62939453125e-05
0.2235,0.00049591064453125
0.224,0.00049591064453125
0.2245,0.00019073486328125
0.225,0.00019073486328125
0.2255,0.00011444091796875
0.226,0.00011444091796875
0.2265,0.00019073486328125
0.227,0.00019073486328125
0.2275,0.0005340576171875
0.228,0.0005340576171875
0.2285,0.00019073486328125
0.229,0.00019073486328125
0.2295,0.00011444091796875
0.23,0.00011444091796875
0.2305,-3.814697265625e-05
0.231,-3.814697265625e-05
0.2315,0.0016021728515625
0.232,0.0016021728515625
0.2325,0.0003814697265625
0.233,0.0003814697265625
0.2335,7.62939453125e-05
0.234,7.62939453125e-05
0.2345,-3.814697265625e-05
0.235,-3.814697265625e-05
0.2355,0.00026702880859375
0.236,0.00026702880859375
0.2365,3.814697265625e-05
0.237,3.814697265625e-05
0.2375,0.00019073486328125
0.238,0.00019073486328125
0.2385,0.00011444091796875
0.239,0.00011444091796875
0.2395,0.000762939453125
0.24,0.000762939453125
0.2405,0.000457763671875
0.241,0.000457763671875
0.2415,0.0
0.242,0.0
0.2425,0.00030517578125
0.243,0.00030517578125
0.2435,0.00072479248046875
0.244,0.00072479248046875
0.2445,0.00049591064453125
0.245,0.00049591064453125
0.2455,-0.0003814697265625
0.246,-0.0003814697265625
0.2465,-3.814697265625e-05
0.247,-3.814697265625e-05
0.2475,0.00011444091796875
0.248,0.00011444091796875
0.2485,0.0
0.249,0.0
0.2495,0.00072479248046875
0.25,0.00072479248046875
0.2505,0.00030517578125
0.251,0.00030517578125
0.2515,0.00019073486328125
0.252,0.00019073486328125
0.2525,0.0003814697265625
0.253,0.0003814697265625
0.2535,0.00011444091796875
0.254,0.00011444091796875
0.2545,0.001068115234375
0.255,0.001068115234375
0.2555,0.00030517578125
0.256,0.00030517578125
0.2565,0.00041961669921875
0.257,0.00041961669921875
0.2575,0.0005340576171875
0.258,0.0005340576171875
0.2585,0.00026702880859375
0.259,0.00026702880859375
0.2595,3.814697265625e-05
0.26,3.814697265625e-05
0.2605,0.0002288818359375
0.261,0.0002288818359375
0.2615,3.814697265625e-05
0.262,3.814697265625e-05
0.2625,-7.62939453125e-05
0.263,-7.62939453125e-05
0.2635,0.0005340576171875
0.264,0.0005340576171875
0.2645,-7.62939453125e-05
0.265,-7.62939453125e-05
0.2655,7.62939453125e-05
0.266,7.62939453125e-05
0.2665,0.00019073486328125
0.267,0.00019073486328125
0.2675,0.00011444091796875
0.268,0.00011444091796875
0.2685,0.00011444091796875
0.269,0.00011444091796875
0.2695,0.00049591064453125
0.27,0.00049591064453125
0.2705,0.0003814697265625
0.271,0.0003814697265625
0.2715,0.0003814697265625
0.272,0.0003814697265625
0.2725,0.0002288818359375
0.273,0.0002288818359375
0.2735,0.00049591064453125
0.274,0.00049591064453125
0.2745,7.62939453125e-05
0.275,7.62939453125e-05
0.2755,0.00026702880859375
0.276,0.00026702880859375
0.2765,0.00034332275390625
0.277,0.00034332275390625
0.2775,0.00034332275390625
0.278,0.00034332275390625
0.2785,3.814697265625e-05
0.279,3.814697265625e-05
0.2795,-0.00011444091796875
0.28,-0.00011444091796875
0.2805,0.00011444091796875
0.281,0.00011444091796875
0.2815,0.00011444091796875
0.282,0.00011444091796875
0.2825,0.00049591064453125
0.283,0.00049591064453125
0.2835,0.000457763671875
0.284,0.000457763671875
0.2845,0.000152587890625
0.285,0.000152587890625
0.2855,0.000762939453125
0.286,0.000762939453125
0.2865,0.0003814697265625
0.287,0.0003814697265625
0.2875,0.00011444091796875
0.288,0.00011444091796875
0.2885,0.00011444091796875
0.289,0.00011444091796875
0.2895,0.0003814697265625
0.29,0.0003814697265625
0.2905,0.0006103515625
0.291,0.0006103515625
0.2915,7.62939453125e-05
0.292,7.62939453125e-05
0.2925,0.00011444091796875
0.293,0.00011444091796875
0.2935,0.000457763671875
0.294,0.000457763671875
0.2945,0.00011444091796875
0.295,0.00011444091796875
0.2955,0.00026702880859375
0.296,0.00026702880859375
0.2965,0.00026702880859375
0.297,0.00026702880859375
0.2975,3.814697265625e-05
0.298,3.814697265625e-05
0.2985,0.00011444091796875
0.299,0.00011444091796875
0.2995,0.00049591064453125
0.3,0.00049591064453125
0.3005,0.000152587890625
0.301,0.000152587890625
0.3015,-3.814697265625e-05
0.302,-3.814697265625e-05
0.3025,0.00064849853515625
0.303,0.00064849853515625
0.3035,0.00011444091796875
0.304,0.00011444091796875
0.3045,0.0003814697265625
0.305,0.0003814697265625
0.3055,0.000457763671875
0.306,0.000457763671875
0.3065,0.00019073486328125
0.307,0.00019073486328125
0.3075,0.00019073486328125
0.308,0.00019073486328125
0.3085,0.0005340576171875
0.309,0.0005340576171875
0.3095,-0.00019073486328125
0.31,-0.00019073486328125
0.3105,0.00034332275390625
0.311,0.00034332275390625
0.3115,3.814697265625e-05
0.312,3.814697265625e-05
0.3125,0.00080108642578125
0.313,0.00080108642578125
0.3135,0.0
0.314,0.0
0.3145,7.62939453125e-05
0.315,7.62939453125e-05
0.3155,0.0003814697265625
0.316,0.0003814697265625
0.3165,0.0005340576171875
0.317,0.0005340576171875
0.3175,0.0009918212890625
0.318,0.0009918212890625
0.3185,-3.814697265625e-05
0.319,-3.814697265625e-05
0.3195,3.814697265625e-05
0.32,3.814697265625e-05
0.3205,0.00057220458984375
0.321,0.00057220458984375
0.3215,0.0
0.322,0.0
0.3225,0.00026702880859375
0.323,0.00026702880859375
0.3235,0.00011444091796875
0.324,0.00011444091796875
0.3245,0.0
0.325,0.0
0.3255,-3.814697265625e-05
0.326,-3.814697265625e-05
0.3265,0.0006866455078125
0.327,0.0006866455078125
0.3275,0.000457763671875
0.328,0.000457763671875
0.3285,7.62939453125e-05
0.329,7.62939453125e-05
0.3295,0.00041961669921875
0.33,0.00041961669921875
0.3305,0.000152587890625
0.331,0.000152587890625
0.3315,0.00011444091796875
0.332,0.00011444091796875
0.3325,0.00026702880859375
0.333,0.00026702880859375
0.3335,0.00011444091796875
0.334,0.00011444091796875
0.3345,7.62939453125e-05
0.335,7.62939453125e-05
0.3355,3.814697265625e-05
0.336,3.814697265625e-05
0.3365,3.814697265625e-05
0.337,3.814697265625e-05
0.3375,0.0005340576171875
0.338,0.0005340576171875
0.3385,0.0003814697265625
0.339,0.0003814697265625
0.3395,0.0
0.34,0.0
0.3405,0.00030517578125
0.341,0.00030517578125
0.3415,-3.814697265625e-05
0.342,-3.814697265625e-05
0.3425,-3.814697265625e-05
0.343,-3.814697265625e-05
0.3435,0.0
0.344,0.0
0.3445,0.00049591064453125
0.345,0.00049591064453125
0.3455,0.00011444091796875
0.346,0.00011444091796875
0.3465,-7.62939453125e-05
0.347,-7.62939453125e-05
0.3475,-3.814697265625e-05
0.348,-3.814697265625e-05
0.3485,-3.814697265625e-05
0.349,-3.814697265625e-05
0.3495,0.00080108642578125
0.35,0.00080108642578125
0.3505,0.00019073486328125
0.351,0.00019073486328125
0.3515,0.00026702880859375
0.352,0.00026702880859375
0.3525,7.62939453125e-05
0.353,7.62939453125e-05
0.3535,-3.814697265625e-05
0.354,-3.814697265625e-05
0.3545,0.00064849853515625
0.355,0.00064849853515625
0.3555,7.62939453125e-05
0.356,7.62939453125e-05
0.3565,0.00011444091796875
0.357,0.00011444091796875
0.3575,0.00034332275390625
0.358,0.00034332275390625
0.3585,0.00034332275390625
0.359,0.00034332275390625
0.3595,0.00011444091796875
0.36,0.00011444091796875
0.3605,0.00011444091796875
0.361,0.00011444091796875
0.3615,0.0
0.362,0.0
0.3625,0.00049591064453125
0.363,0.00049591064453125
0.3635,3.814697265625e-05
0.364,3.814697265625e-05
0.3645,-0.00034332275390625
0.365,-0.00034332275390625
0.3655,0.0002288818359375
0.366,0.0002288818359375
0.3665,0.0
0.367,0.0
0.3675,3.814697265625e-05
0.368,3.814697265625e-05
0.3685,0.00030517578125
0.369,0.00030517578125
0.3695,0.0002288818359375
0.37,0.0002288818359375
0.3705,0.00026702880859375
0.371,0.00026702880859375
0.3715,0.00072479248046875
0.372,0.00072479248046875
0.3725,0.00011444091796875
0.373,0.00011444091796875
0.3735,0.00011444091796875
0.374,0.00011444091796875
0.3745,0.00011444091796875
0.375,0.00011444091796875
0.3755,0.00049591064453125
0.376,0.00049591064453125
0.3765,0.000152587890625
0.377,0.000152587890625
0.3775,0.000457763671875
0.378,0.000457763671875
0.3785,0.0003814697265625
0.379,0.0003814697265625
0.3795,0.0008392333984375
0.38,0.0008392333984375
0.3805,0.0002288818359375
0.381,0.0002288818359375
0.3815,0.0006103515625
0.382,0.0006103515625
0.3825,-0.000152587890625
0.383,-0.000152587890625
0.3835,0.0
0.384,0.0
0.3845,7.62939453125e-05
0.385,7.62939453125e-05
0.3855,0.0002288818359375
0.386,0.0002288818359375
0.3865,0.00030517578125
0.387,0.00030517578125
0.3875,0.00019073486328125
0.388,0.00019073486328125
0.3885,0.00057220458984375
0.389,0.00057220458984375
0.3895,0.000152587890625
0.39,0.000152587890625
0.3905,0.00034332275390625
0.391,0.00034332275390625
0.3915,0.0
0.392,0.0
0.3925,0.0003814697265625
0.393,0.0003814697265625
0.3935,0.0003814697265625
0.394,0.0003814697265625
0.3945,0.0006103515625
0.395,0.0006103515625
0.3955,0.0005340576171875
0.396,0.0005340576171875
0.3965,0.000152587890625
0.397,0.000152587890625
0.3975,7.62939453125e-05
0.398,7.62939453125e-05
0.3985,3.814697265625e-05
0.399,3.814697265625e-05
0.3995,0.0008392333984375
0.4,0.0008392333984375
0.4005,0.00011444091796875
0.401,0.00011444091796875
0.4015,-3.814697265625e-05
0.402,-3.814697265625e-05
0.4025,0.00019073486328125
0.403,0.00019073486328125
0.4035,3.814697265625e-05
0.404,3.814697265625e-05
0.4045,-7.62939453125e-05
0.405,-7.62939453125e-05
0.4055,0.0002288818359375
0.406,0.0002288818359375
0.4065,7.62939453125e-05
0.407,7.62939453125e-05
0.4075,0.00034332275390625
0.408,0.00034332275390625
0.4085,0.0003814697265625
0.409,0.0003814697265625
0.4095,3.814697265625e-05
0.41,3.814697265625e-05
0.4105,0.00026702880859375
0.411,0.00026702880859375
0.4115,0.00041961669921875
0.412,0.00041961669921875
0.4125,0.000152587890625
0.413,0.000152587890625
0.4135,0.0
0.414,0.0
0.4145,0.00011444091796875
0.415,0.00011444091796875
0.4155,0.00041961669921875
0.416,0.00041961669921875
0.4165,0.00030517578125
0.417,0.00030517578125
0.4175,3.814697265625e-05
0.418,3.814697265625e-05
0.4185,0.00019073486328125
0.419,0.00019073486328125
0.4195,0.00011444091796875
0.42,0.00011444091796875
0.4205,0.0008392333984375
0.421,0.0008392333984375
0.4215,0.00041961669921875
0.422,0.00041961669921875
0.4225,0.00041961669921875
0.423,0.00041961669921875
0.4235,0.00019073486328125
0.424,0.00019073486328125
0.4245,7.62939453125e-05
0.425,7.62939453125e-05
0.4255,0.00049591064453125
0.426,0.00049591064453125
0.4265,0.00057220458984375
0.427,0.00057220458984375
0.4275,0.00087738037109375
0.428,0.00087738037109375
0.4285,0.000152587890625
0.429,0.000152587890625
0.4295,-0.00030517578125
0.43,-0.00030517578125
0.4305,0.000152587890625
0.431,0.000152587890625
0.4315,0.000457763671875
0.432,0.000457763671875
0.4325,0.0005340576171875
0.433,0.0005340576171875
0.4335,0.00080108642578125
0.434,0.00080108642578125
0.4345,0.0002288818359375
0.435,0.0002288818359375
0.4355,0.0005340576171875
0.436,0.0005340576171875
0.4365,0.00030517578125
0.437,0.00030517578125
0.4375,0.000152587890625
0.438,0.000152587890625
0.4385,0.00091552734375
0.439,0.00091552734375
0.4395,0.00049591064453125
0.44,0.00049591064453125
0.4405,0.0
0.441,0.0
0.4415,0.00019073486328125
0.442,0.00019073486328125
0.4425,0.0006866455078125
0.443,0.0006866455078125
0.4435,0.00019073486328125
0.444,0.00019073486328125
0.4445,3.814697265625e-05
0.445,3.814697265625e-05
0.4455,0.00026702880859375
0.446,0.00026702880859375
0.4465,0.000152587890625
0.447,0.000152587890625
0.4475,0.00041961669921875
0.448,0.00041961669921875
0.4485,0.00041961669921875
0.449,0.00041961669921875
0.4495,0.00011444091796875
0.45,0.00011444091796875
0.4505,0.0002288818359375
0.451,0.0002288818359375
0.4515,-3.814697265625e-05
0.452,-3.814697265625e-05
0.4525,0.000152587890625
0.453,0.000152587890625
0.4535,0.00041961669921875
0.454,0.00041961669921875
0.4545,0.00011444091796875
0.455,0.00011444091796875
0.4555,0.000152587890625
0.456,0.000152587890625
0.4565,0.00080108642578125
0.457,0.00080108642578125
0.4575,0.000457763671875
0.458,0.000457763671875
0.4585,0.0002288818359375
0.459,0.0002288818359375
0.4595,0.000762939453125
0.46,0.000762939453125
0.4605,3.814697265625e-05
0.461,3.814697265625e-05
0.4615,0.0006103515625
0.462,0.0006103515625
0.4625,0.000152587890625
0.463,0.000152587890625
0.4635,0.00072479248046875
0.464,0.00072479248046875
0.4645,7.62939453125e-05
0.465,7.62939453125e-05
0.4655,0.000152587890625
0.466,0.000152587890625
0.4665,0.0
0.467,0.0
0.4675,7.62939453125e-05
0.468,7.62939453125e-05
0.4685,-3.814697265625e-05
0.469,-3.814697265625e-05
0.4695,0.00011444091796875
0.47,0.00011444091796875
0.4705,0.00057220458984375
0.471,0.00057220458984375
0.4715,-0.00011444091796875
0.472,-0.00011444091796875
0.4725,0.0003814697265625
0.473,0.0003814697265625
0.4735,0.00041961669921875
0.474,0.00041961669921875
0.4745,0.0002288818359375
0.475,0.0002288818359375
0.4755,0.00019073486328125
0.476,0.00019073486328125
0.4765,3.814697265625e-05
0.477,3.814697265625e-05
0.4775,0.000152587890625
0.478,0.000152587890625
0.4785,0.00095367431640625
0.479,0.00095367431640625
0.4795,0.00080108642578125
0.48,0.00080108642578125
0.4805,0.00030517578125
0.481,0.00030517578125
0.4815,0.00030517578125
0.482,0.00030517578125
0.4825,3.814697265625e-05
0.483,3.814697265625e-05
0.4835,-7.62939453125e-05
0.484,-7.62939453125e-05
0.4845,0.00011444091796875
0.485,0.00011444091796875
0.4855,0.00019073486328125
0.486,0.00019073486328125
0.4865,0.00019073486328125
0.487,0.00019073486328125
0.4875,0.0003814697265625
0.488,0.0003814697265625
0.4885,0.0006103515625
0.489,0.0006103515625
0.4895,0.0
0.49,0.0
0.4905,0.00072479248046875
0.491,0.00072479248046875
0.4915,0.000152587890625
0.492,0.000152587890625
0.4925,0.00026702880859375
0.493,0.00026702880859375
0.4935,-0.00011444091796875
0.494,-0.00011444091796875
0.4945,0.00034332275390625
0.495,0.00034332275390625
0.4955,0.00064849853515625
0.496,0.00064849853515625
0.4965,0.000152587890625
0.497,0.000152587890625
0.4975,0.00030517578125
0.498,0.00030517578125
0.4985,0.0002288818359375
0.499,0.0002288818359375
0.4995,-3.814697265625e-05
0.5,-3.814697265625e-05
0.5005,7.62939453125e-05
0.501,7.62939453125e-05
0.5015,0.00030517578125
0.502,0.00030517578125
0.5025,0.00019073486328125
0.503,0.00019073486328125
0.5035,0.00011444091796875
0.504,0.00011444091796875
0.5045,0.00030517578125
0.505,0.00030517578125
0.5055,0.000457763671875
0.506,0.000457763671875
0.5065,3.814697265625e-05
0.507,3.814697265625e-05
0.5075,0.0005340576171875
0.508,0.0005340576171875
0.5085,0.00041961669921875
0.509,0.00041961669921875
0.5095,0.0
0.51,0.0
0.5105,0.00034332275390625
0.511,0.00034332275390625
0.5115,0.000457763671875
0.512,0.000457763671875
0.5125,-3.814697265625e-05
0.513,-3.814697265625e-05
0.5135,0.00030517578125
0.514,0.00030517578125
0.5145,0.00011444091796875
0.515,0.00011444091796875
0.5155,0.00041961669921875
0.516,0.00041961669921875
0.5165,0.0002288818359375
0.517,0.0002288818359375
0.5175,3.814697265625e-05
0.518,3.814697265625e-05
0.5185,0.0006866455078125
0.519,0.0006866455078125
0.5195,0.00030517578125
0.52,0.00030517578125
0.5205,-3.814697265625e-05
0.521,-3.814697265625e-05
0.5215,0.00019073486328125
0.522,0.00019073486328125
0.5225,0.00011444091796875
0.523,0.00011444091796875
0.5235,0.0006866455078125
0.524,0.0006866455078125
0.5245,0.0003814697265625
0.525,0.0003814697265625
0.5255,0.0
0.526,0.0
0.5265,7.62939453125e-05
0.527,7.62939453125e-05
0.5275,0.0
0.528,0.0
0.5285,0.00034332275390625
0.529,0.00034332275390625
0.5295,0.00080108642578125
0.53,0.00080108642578125
0.5305,0.0
0.531,0.0
0.5315,0.00011444091796875
0.532,0.00011444091796875
0.5325,7.62939453125e-05
0.533,7.62939453125e-05
0.5335,0.00087738037109375
0.534,0.00087738037109375
0.5345,0.000457763671875
0.535,0.000457763671875
0.5355,0.000152587890625
0.536,0.000152587890625
0.5365,-0.00030517578125
0.537,-0.00030517578125
0.5375,0.00041961669921875
0.538,0.00041961669921875
0.5385,0.0005340576171875
0.539,0.0005340576171875
0.5395,0.00011444091796875
0.54,0.00011444091796875
0.5405,0.00011444091796875
0.541,0.00011444091796875
0.5415,7.62939453125e-05
0.542,7.62939453125e-05
0.5425,0.000152587890625
0.543,0.000152587890625
0.5435,0.00049591064453125
0.544,0.00049591064453125
0.5445,0.00030517578125
0.545,0.00030517578125
0.5455,0.00064849853515625
0.546,0.00064849853515625
0.5465,0.0005340576171875
0.547,0.0005340576171875
0.5475,0.00030517578125
0.548,0.00030517578125
0.5485,0.00026702880859375
0.549,0.00026702880859375
0.5495,0.00080108642578125
0.55,0.00080108642578125
0.5505,0.00011444091796875
0.551,0.00011444091796875
0.5515,0.0003814697265625
0.552,0.0003814697265625
0.5525,3.814697265625e-05
0.553,3.814697265625e-05
0.5535,0.00030517578125
0.554,0.00030517578125
0.5545,0.000457763671875
0.555,0.000457763671875
0.5555,0.00011444091796875
0.556,0.00011444091796875
0.5565,0.00034332275390625
0.557,0.00034332275390625
0.5575,0.00091552734375
0.558,0.00091552734375
0.5585,0.000152587890625
0.559,0.000152587890625
0.5595,0.00030517578125
0.56,0.00030517578125
0.5605,0.0
0.561,0.0
0.5615,0.00019073486328125
0.562,0.00019073486328125
0.5625,0.00091552734375
0.563,0.00091552734375
0.5635,0.0003814697265625
0.564,0.0003814697265625
0.5645,0.0003814697265625
0.565,0.0003814697265625
0.5655,0.00011444091796875
0.566,0.00011444091796875
0.5665,-7.62939453125e-05
0.567,-7.62939453125e-05
0.5675,0.0003814697265625
0.568,0.0003814697265625
0.5685,3.814697265625e-05
0.569,3.814697265625e-05
0.5695,0.000152587890625
0.57,0.000152587890625
0.5705,0.00072479248046875
0.571,0.00072479248046875
0.5715,0.00030517578125
0.572,0.00030517578125
0.5725,3.814697265625e-05
0.573,3.814697265625e-05
0.5735,7.62939453125e-05
0.574,7.62939453125e-05
0.5745,0.0003814697265625
0.575,0.0003814697265625
0.5755,0.00030517578125
0.576,0.00030517578125
0.5765,0.00026702880859375
0.577,0.00026702880859375
0.5775,0.00026702880859375
0.578,0.00026702880859375
0.5785,0.00019073486328125
0.579,0.00019073486328125
0.5795,0.00041961669921875
0.58,0.00041961669921875
0.5805,3.814697265625e-05
0.581,3.814697265625e-05
0.5815,0.0003814697265625
0.582,0.0003814697265625
0.5825,0.0006103515625
0.583,0.0006103515625
0.5835,0.00026702880859375
0.584,0.00026702880859375
0.5845,7.62939453125e-05
0.585,7.62939453125e-05
0.5855,0.00041961669921875
0.586,0.00041961669921875
0.5865,0.00057220458984375
0.587,0.00057220458984375
0.5875,0.000152587890625
0.588,0.000152587890625
0.5885,-0.00034332275390625
0.589,-0.00034332275390625
0.5895,0.0003814697265625
0.59,0.0003814697265625
0.5905,0.00064849853515625
0.591,0.00064849853515625
0.5915,0.0006103515625
0.592,0.0006103515625
0.5925,0.0006103515625
0.593,0.0006103515625
0.5935,0.000152587890625
0.594,0.000152587890625
0.5945,0.000457763671875
0.595,0.000457763671875
0.5955,0.00072479248046875
0.596,0.00072479248046875
0.5965,0.00011444091796875
0.597,0.00011444091796875
0.5975,0.00019073486328125
0.598,0.00019073486328125
0.5985,0.00049591064453125
0.599,0.00049591064453125
0.5995,0.00034332275390625
0.6,0.00034332275390625
0.6005,0.0006103515625
0.601,0.0006103515625
0.6015,0.00011444091796875
0.602,0.00011444091796875
0.6025,0.00011444091796875
0.603,0.00011444091796875
0.6035,7.62939453125e-05
0.604,7.62939453125e-05
0.6045,-3.814697265625e-05
0.605,-3.814697265625e-05
0.6055,0.0
0.606,0.0
0.6065,7.62939453125e-05
0.607,7.62939453125e-05
0.6075,0.00026702880859375
0.608,0.00026702880859375
0.6085,3.814697265625e-05
0.609,3.814697265625e-05
0.6095,-3.814697265625e-05
0.61,-3.814697265625e-05
0.6105,0.00011444091796875
0.611,0.00011444091796875
0.6115,-3.814697265625e-05
0.612,-3.814697265625e-05
0.6125,0.00057220458984375
0.613,0.00057220458984375
0.6135,0.0003814697265625
0.614,0.0003814697265625
0.6145,0.00019073486328125
0.615,0.00019073486328125
0.6155,0.000457763671875
0.616,0.000457763671875
0.6165,-3.814697265625e-05
0.617,-3.814697265625e-05
0.6175,0.00034332275390625
0.618,0.00034332275390625
0.6185,-7.62939453125e-05
0.619,-7.62939453125e-05
0.6195,0.000457763671875
0.62,0.000457763671875
0.6205,0.00064849853515625
0.621,0.00064849853515625
0.6215,0.0006866455078125
0.622,0.0006866455078125
0.6225,0.00011444091796875
0.623,0.00011444091796875
0.6235,-0.00011444091796875
0.624,-0.00011444091796875
0.6245,3.814697265625e-05
0.625,3.814697265625e-05
0.6255,0.00026702880859375
0.626,0.00026702880859375
0.6265,0.00049591064453125
0.627,0.00049591064453125
0.6275,-3.814697265625e-05
0.628,-3.814697265625e-05
0.6285,0.0002288818359375
0.629,0.0002288818359375
0.6295,0.00041961669921875
0.63,0.00041961669921875
0.6305,0.00019073486328125
0.631,0.00019073486328125
0.6315,0.0006866455078125
0.632,0.0006866455078125
0.6325,0.00011444091796875
0.633,0.00011444091796875
0.6335,0.00041961669921875
0.634,0.00041961669921875
0.6345,0.00019073486328125
0.635,0.00019073486328125
0.6355,0.0
0.636,0.0
0.6365,0.0002288818359375
0.637,0.0002288818359375
0.6375,0.00034332275390625
0.638,0.00034332275390625
0.6385,0.0002288818359375
0.639,0.0002288818359375
0.6395,3.814697265625e-05
0.64,3.814697265625e-05
0.6405,-7.62939453125e-05
0.641,-7.62939453125e-05
0.6415,0.000152587890625
0.642,0.000152587890625
0.6425,0.00049591064453125
0.643,0.00049591064453125
0.6435,0.00026702880859375
0.644,0.00026702880859375
0.6445,0.00011444091796875
0.645,0.00011444091796875
0.6455,0.0
0.646,0.0
0.6465,7.62939453125e-05
0.647,7.62939453125e-05
0.6475,0.00011444091796875
0.648,0.00011444091796875
0.6485,0.000457763671875
0.649,0.000457763671875
0.6495,7.62939453125e-05
0.65,7.62939453125e-05
0.6505,0.0
0.651,0.0
0.6515,0.0003814697265625
0.652,0.0003814697265625
0.6525,0.00011444091796875
0.653,0.00011444091796875
0.6535,0.00030517578125
0.654,0.00030517578125
0.6545,0.000457763671875
0.655,0.000457763671875
0.6555,0.00019073486328125
0.656,0.00019073486328125
0.6565,0.0
0.657,0.0
0.6575,0.00030517578125
0.658,0.00030517578125
0.6585,-3.814697265625e-05
0.659,-3.814697265625e-05
0.6595,0.000457763671875
0.66,0.000457763671875
0.6605,0.00011444091796875
0.661,0.00011444091796875
0.6615,7.62939453125e-05
0.662,7.62939453125e-05
0.6625,0.00034332275390625
0.663,0.00034332275390625
0.6635,-3.814697265625e-05
0.664,-3.814697265625e-05
0.6645,0.00019073486328125
0.665,0.00019073486328125
0.6655,0.0002288818359375
0.666,0.0002288818359375
0.6665,7.62939453125e-05
0.667,7.62939453125e-05
0.6675,0.0006103515625
0.668,0.0006103515625
0.6685,0.0006103515625
0.669,0.0006103515625
0.6695,0.00041961669921875
0.67,0.00041961669921875
0.6705,0.000152587890625
0.671,0.000152587890625
0.6715,0.00095367431640625
0.672,0.00095367431640625
0.6725,0.00030517578125
0.673,0.00030517578125
0.6735,3.814697265625e-05
0.674,3.814697265625e-05
0.6745,0.000762939453125
0.675,0.000762939453125
0.6755,0.00011444091796875
0.676,0.00011444091796875
0.6765,0.000152587890625
0.677,0.000152587890625
0.6775,0.00064849853515625
0.678,0.00064849853515625
0.6785,7.62939453125e-05
0.679,7.62939453125e-05
0.6795,3.814697265625e-05
0.68,3.814697265625e-05
0.6805,3.814697265625e-05
0.681,3.814697265625e-05
0.6815,3.814697265625e-05
0.682,3.814697265625e-05
0.6825,0.00041961669921875
0.683,0.00041961669921875
0.6835,0.00011444091796875
0.684,0.00011444091796875
0.6845,0.000152587890625
0.685,0.000152587890625
0.6855,0.0
0.686,0.0
0.6865,-3.814697265625e-05
0.687,-3.814697265625e-05
0.6875,0.00011444091796875
0.688,0.00011444091796875
0.6885,0.00011444091796875
0.689,0.00011444091796875
0.6895,3.814697265625e-05
0.69,3.814697265625e-05
0.6905,0.000762939453125
0.691,0.000762939453125
0.6915,0.00026702880859375
0.692,0.00026702880859375
0.6925,7.62939453125e-05
0.693,7.62939453125e-05
0.6935,0.000762939453125
0.694,0.000762939453125
0.6945,0.00049591064453125
0.695,0.00049591064453125
0.6955,0.00041961669921875
0.696,0.00041961669921875
0.6965,0.000457763671875
0.697,0.000457763671875
0.6975,0.000152587890625
0.698,0.000152587890625
0.6985,-0.00026702880859375
0.699,-0.00026702880859375
0.6995,0.00041961669921875
0.7,0.00041961669921875
0.7005,0.0
0.701,0.0
0.7015,0.000152587890625
0.702,0.000152587890625
0.7025,0.00019073486328125
0.703,0.00019073486328125
0.7035,0.00034332275390625
0.704,0.00034332275390625
0.7045,0.00064849853515625
0.705,0.00064849853515625
0.7055,0.0
0.706,0.0
0.7065,7.62939453125e-05
0.707,7.62939453125e-05
0.7075,0.00034332275390625
0.708,0.00034332275390625
0.7085,0.0
0.709,0.0
0.7095,0.00030517578125
0.71,0.00030517578125
0.7105,-0.000152587890625
0.711,-0.000152587890625
0.7115,0.0006103515625
0.712,0.0006103515625
0.7125,0.00034332275390625
0.713,0.00034332275390625
0.7135,0.0003814697265625
0.714,0.0003814697265625
0.7145,0.00026702880859375
0.715,0.00026702880859375
0.7155,0.000152587890625
0.716,0.000152587890625
0.7165,0.0006866455078125
0.717,0.0006866455078125
0.7175,0.00011444091796875
0.718,0.00011444091796875
0.7185,-0.00011444091796875
0.719,-0.00011444091796875
0.7195,0.00019073486328125
0.72,0.00019073486328125
0.7205,0.0006103515625
0.721,0.0006103515625
0.7215,0.0005340576171875
0.722,0.0005340576171875
0.7225,0.0
0.723,0.0
0.7235,3.814697265625e-05
0.724,3.814697265625e-05
0.7245,0.00011444091796875
0.725,0.00011444091796875
0.7255,0.0
0.726,0.0
0.7265,0.00057220458984375
0.727,0.00057220458984375
0.7275,0.0002288818359375
0.728,0.0002288818359375
0.7285,0.0005340576171875
0.729,0.0005340576171875
0.7295,0.00019073486328125
0.73,0.00019073486328125
0.7305,-0.000152587890625
0.731,-0.000152587890625
0.7315,0.00026702880859375
0.732,0.00026702880859375
0.7325,0.00034332275390625
0.733,0.00034332275390625
0.7335,7.62939453125e-05
0.734,7.62939453125e-05
0.7345,0.00026702880859375
0.735,0.00026702880859375
0.7355,7.62939453125e-05
0.736,7.62939453125e-05
0.7365,0.0
0.737,0.0
0.7375,0.0006103515625
0.738,0.0006103515625
0.7385,0.000152587890625
0.739,0.000152587890625
0.7395,3.814697265625e-05
0.74,3.814697265625e-05
0.7405,0.0003814697265625
0.741,0.0003814697265625
0.7415,0.00091552734375
0.742,0.00091552734375
0.7425,0.00019073486328125
0.743,0.00019073486328125
0.7435,0.00011444091796875
0.744,0.00011444091796875
0.7445,0.0
0.745,0.0
0.7455,0.0
0.746,0.0
0.7465,0.000457763671875
0.747,0.000457763671875
0.7475,0.00026702880859375
0.748,0.00026702880859375
0.7485,7.62939453125e-05
0.749,7.62939453125e-05
0.7495,0.0006103515625
0.75,0.0006103515625
0.7505,7.62939453125e-05
0.751,7.62939453125e-05
0.7515,0.00049591064453125
0.752,0.00049591064453125
0.7525,0.00019073486328125
0.753,0.00019073486328125
0.7535,0.000457763671875
0.754,0.000457763671875
0.7545,0.0002288818359375
0.755,0.0002288818359375
0.7555,-0.00041961669921875
0.756,-0.00041961669921875
0.7565,0.00057220458984375
0.757,0.00057220458984375
0.7575,0.00080108642578125
0.758,0.00080108642578125
0.7585,0.00019073486328125
0.759,0.00019073486328125
0.7595,0.00026702880859375
0.76,0.00026702880859375
0.7605,7.62939453125e-05
0.761,7.62939453125e-05
0.7615,0.00034332275390625
0.762,0.00034332275390625
0.7625,0.00034332275390625
0.763,0.00034332275390625
0.7635,0.00072479248046875
0.764,0.00072479248046875
0.7645,0.0006103515625
0.765,0.0006103515625
0.7655,0.000152587890625
0.766,0.000152587890625
0.7665,0.00011444091796875
0.767,0.00011444091796875
0.7675,0.0008392333984375
0.768,0.0008392333984375
0.7685,0.00034332275390625
0.769,0.00034332275390625
0.7695,0.00019073486328125
0.77,0.00019073486328125
0.7705,0.00072479248046875
0.771,0.00072479248046875
0.7715,0.0002288818359375
0.772,0.0002288818359375
0.7725,0.0
0.773,0.0
0.7735,0.00049591064453125
0.774,0.00049591064453125
0.7745,3.814697265625e-05
0.775,3.814697265625e-05
0.7755,-7.62939453125e-05
0.776,-7.62939453125e-05
0.7765,0.0006103515625
0.777,0.0006103515625
0.7775,0.00064849853515625
0.778,0.00064849853515625
0.7785,0.0006866455078125
0.779,0.0006866455078125
0.7795,0.00030517578125
0.78,0.00030517578125
0.7805,0.0003814697265625
0.781,0.0003814697265625
0.7815,0.00011444091796875
0.782,0.00011444091796875
0.7825,0.00034332275390625
0.783,0.00034332275390625
0.7835,0.00019073486328125
0.784,0.00019073486328125
0.7845,0.00019073486328125
0.785,0.00019073486328125
0.7855,0.00011444091796875
0.786,0.00011444091796875
0.7865,7.62939453125e-05
0.787,7.62939453125e-05
0.7875,-0.00030517578125
0.788,-0.00030517578125
0.7885,0.000152587890625
0.789,0.000152587890625
0.7895,0.0008392333984375
0.79,0.0008392333984375
0.7905,3.814697265625e-05
0.791,3.814697265625e-05
0.7915,0.00049591064453125
0.792,0.00049591064453125
0.7925,0.000152587890625
0.793,0.000152587890625
0.7935,0.001068115234375
0.794,0.001068115234375
0.7945,0.00011444091796875
0.795,0.00011444091796875
0.7955,0.00026702880859375
0.796,0.00026702880859375
0.7965,0.0006103515625
0.797,0.0006103515625
0.7975,0.0
0.798,0.0
0.7985,0.00030517578125
0.799,0.00030517578125
0.7995,0.0
0.8,0.0
0.8005,0.00030517578125
0.801,0.00030517578125
0.8015,0.00049591064453125
0.802,0.00049591064453125
0.8025,0.000457763671875
0.803,0.000457763671875
0.8035,0.00026702880859375
0.804,0.00026702880859375
0.8045,0.00080108642578125
0.805,0.00080108642578125
0.8055,0.000152587890625
0.806,0.000152587890625
0.8065,-3.814697265625e-05
0.807,-3.814697265625e-05
0.8075,0.0006866455078125
0.808,0.0006866455078125
0.8085,-3.814697265625e-05
0.809,-3.814697265625e-05
0.8095,0.00026702880859375
0.81,0.00026702880859375
0.8105,0.0009918212890625
0.811,0.0009918212890625
0.8115,-3.814697265625e-05
0.812,-3.814697265625e-05
0.8125,0.00041961669921875
0.813,0.00041961669921875
0.8135,0.00026702880859375
0.814,0.00026702880859375
0.8145,0.0002288818359375
0.815,0.0002288818359375
0.8155,0.00034332275390625
0.816,0.00034332275390625
0.8165,-7.62939453125e-05
0.817,-7.62939453125e-05
0.8175,0.00057220458984375
0.818,0.00057220458984375
0.8185,0.00118255615234375
0.819,0.00118255615234375
0.8195,0.0003814697265625
0.82,0.0003814697265625
0.8205,0.00087738037109375
0.821,0.00087738037109375
0.8215,0.0003814697265625
0.822,0.0003814697265625
0.8225,0.0
0.823,0.0
0.8235,3.814697265625e-05
0.824,3.814697265625e-05
0.8245,0.000152587890625
0.825,0.000152587890625
0.8255,0.00041961669921875
0.826,0.00041961669921875
0.8265,0.00057220458984375
0.827,0.00057220458984375
0.8275,0.00019073486328125
0.828,0.00019073486328125
0.8285,0.00034332275390625
0.829,0.00034332275390625
0.8295,0.00019073486328125
0.83,0.00019073486328125
0.8305,0.0
0.831,0.0
0.8315,0.000457763671875
0.832,0.000457763671875
0.8325,0.00011444091796875
0.833,0.00011444091796875
0.8335,0.0002288818359375
0.834,0.0002288818359375
0.8345,0.00011444091796875
0.835,0.00011444091796875
0.8355,0.00011444091796875
0.836,0.00011444091796875
0.8365,0.000152587890625
0.837,0.000152587890625
0.8375,0.00019073486328125
0.838,0.00019073486328125
0.8385,0.0006866455078125
0.839,0.0006866455078125
0.8395,0.00049591064453125
0.84,0.00049591064453125
0.8405,0.00026702880859375
0.841,0.00026702880859375
0.8415,0.00019073486328125
0.842,0.00019073486328125
0.8425,0.00080108642578125
0.843,0.00080108642578125
0.8435,0.00011444091796875
0.844,0.00011444091796875
0.8445,-0.00019073486328125
0.845,-0.00019073486328125
0.8455,0.000457763671875
0.846,0.000457763671875
0.8465,0.000152587890625
0.847,0.000152587890625
0.8475,0.000152587890625
0.848,0.000152587890625
0.8485,0.0
0.849,0.0
0.8495,0.0
0.85,0.0
0.8505,0.00064849853515625
0.851,0.00064849853515625
0.8515,3.814697265625e-05
0.852,3.814697265625e-05
0.8525,0.00034332275390625
0.853,0.00034332275390625
0.8535,0.00019073486328125
0.854,0.00019073486328125
0.8545,0.0011444091796875
0.855,0.0011444091796875
0.8555,0.00087738037109375
0.856,0.00087738037109375
0.8565,0.00011444091796875
0.857,0.00011444091796875
0.8575,-0.000152587890625
0.858,-0.000152587890625
0.8585,0.00091552734375
0.859,0.00091552734375
0.8595,0.00011444091796875
0.86,0.00011444091796875
0.8605,7.62939453125e-05
0.861,7.62939453125e-05
0.8615,0.00011444091796875
0.862,0.00011444091796875
0.8625,0.00026702880859375
0.863,0.00026702880859375
0.8635,-3.814697265625e-05
0.864,-3.814697265625e-05
0.8645,0.00019073486328125
0.865,0.00019073486328125
0.8655,0.00026702880859375
0.866,0.00026702880859375
0.8665,0.00041961669921875
0.867,0.00041961669921875
0.8675,0.000152587890625
0.868,0.000152587890625
0.8685,0.0002288818359375
0.869,0.0002288818359375
0.8695,-3.814697265625e-05
0.87,-3.814697265625e-05
0.8705,7.62939453125e-05
0.871,7.62939453125e-05
0.8715,0.00011444091796875
0.872,0.00011444091796875
0.8725,-3.814697265625e-05
0.873,-3.814697265625e-05
0.8735,3.814697265625e-05
0.874,3.814697265625e-05
0.8745,0.00080108642578125
0.875,0.00080108642578125
0.8755,-3.814697265625e-05
0.876,-3.814697265625e-05
0.8765,0.00041961669921875
0.877,0.00041961669921875
0.8775,0.0006866455078125
0.878,0.0006866455078125
0.8785,0.00019073486328125
0.879,0.00019073486328125
0.8795,0.0006103515625
0.88,0.0006103515625
0.8805,0.00030517578125
0.881,0.00030517578125
0.8815,0.0002288818359375
0.882,0.0002288818359375
0.8825,0.00049591064453125
0.883,0.00049591064453125
0.8835,-0.00019073486328125
0.884,-0.00019073486328125
0.8845,7.62939453125e-05
0.885,7.62939453125e-05
0.8855,0.00030517578125
0.886,0.00030517578125
0.8865,0.00064849853515625
0.887,0.00064849853515625
0.8875,-3.814697265625e-05
0.888,-3.814697265625e-05
0.8885,0.0006103515625
0.889,0.0006103515625
0.8895,0.0005340576171875
0.89,0.0005340576171875
0.8905,0.0
0.891,0.0
0.8915,0.00019073486328125
0.892,0.00019073486328125
0.8925,0.00011444091796875
0.893,0.00011444091796875
0.8935,0.00041961669921875
0.894,0.00041961669921875
0.8945,7.62939453125e-05
0.895,7.62939453125e-05
0.8955,0.00026702880859375
0.896,0.00026702880859375
0.8965,0.0
0.897,0.0
0.8975,0.00049591064453125
0.898,0.00049591064453125
0.8985,0.00026702880859375
0.899,0.00026702880859375
0.8995,0.00019073486328125
0.9,0.00019073486328125
0.9005,0.0006103515625
0.901,0.0006103515625
0.9015,0.000152587890625
0.902,0.000152587890625
0.9025,0.000152587890625
0.903,0.000152587890625
0.9035,0.000152587890625
0.904,0.000152587890625
0.9045,7.62939453125e-05
0.905,7.62939453125e-05
0.9055,0.00034332275390625
0.906,0.00034332275390625
0.9065,0.00030517578125
0.907,0.00030517578125
0.9075,3.814697265625e-05
0.908,3.814697265625e-05
0.9085,0.0011444091796875
0.909,0.0011444091796875
0.9095,0.00019073486328125
0.91,0.00019073486328125
0.9105,0.0
0.911,0.0
0.9115,0.00011444091796875
0.912,0.00011444091796875
0.9125,0.000457763671875
0.913,0.000457763671875
0.9135,3.814697265625e-05
0.914,3.814697265625e-05
0.9145,0.00091552734375
0.915,0.00091552734375
0.9155,3.814697265625e-05
0.916,3.814697265625e-05
0.9165,0.000457763671875
0.917,0.000457763671875
0.9175,0.00087738037109375
0.918,0.00087738037109375
0.9185,0.00019073486328125
0.919,0.00019073486328125
0.9195,0.00118255615234375
0.92,0.00118255615234375
0.9205,0.00049591064453125
0.921,0.00049591064453125
0.9215,-0.0003814697265625
0.922,-0.0003814697265625
0.9225,0.00034332275390625
0.923,0.00034332275390625
0.9235,3.814697265625e-05
0.924,3.814697265625e-05
0.9245,0.00026702880859375
0.925,0.00026702880859375
0.9255,0.00030517578125
0.926,0.00030517578125
0.9265,0.00019073486328125
0.927,0.00019073486328125
0.9275,3.814697265625e-05
0.928,3.814697265625e-05
0.9285,7.62939453125e-05
0.929,7.62939453125e-05
0.9295,0.00019073486328125
0.93,0.00019073486328125
0.9305,0.000152587890625
0.931,0.000152587890625
0.9315,0.00019073486328125
0.932,0.00019073486328125
0.9325,7.62939453125e-05
0.933,7.62939453125e-05
0.9335,0.0002288818359375
0.934,0.0002288818359375
0.9345,0.000457763671875
0.935,0.000457763671875
0.9355,-3.814697265625e-05
0.936,-3.814697265625e-05
0.9365,0.00026702880859375
0.937,0.00026702880859375
0.9375,0.0009918212890625
0.938,0.0009918212890625
0.9385,0.00011444091796875
0.939,0.00011444091796875
0.9395,0.00064849853515625
0.94,0.00064849853515625
0.9405,7.62939453125e-05
0.941,7.62939453125e-05
0.9415,0.0002288818359375
0.942,0.0002288818359375
0.9425,0.00026702880859375
0.943,0.00026702880859375
0.9435,0.000152587890625
0.944,0.000152587890625
0.9445,7.62939453125e-05
0.945,7.62939453125e-05
0.9455,0.000457763671875
0.946,0.000457763671875
0.9465,0.00019073486328125
0.947,0.00019073486328125
0.9475,7.62939453125e-05
0.948,7.62939453125e-05
0.9485,0.0008392333984375
0.949,0.0008392333984375
0.9495,0.00011444091796875
0.95,0.00011444091796875
0.9505,0.000457763671875
0.951,0.000457763671875
0.9515,0.00011444091796875
0.952,0.00011444091796875
0.9525,0.0008392333984375
0.953,0.0008392333984375
0.9535,0.000762939453125
0.954,0.000762939453125
0.9545,-3.814697265625e-05
0.955,-3.814697265625e-05
0.9555,0.0
0.956,0.0
0.9565,7.62939453125e-05
0.957,7.62939453125e-05
0.9575,-3.814697265625e-05
0.958,-3.814697265625e-05
0.9585,0.0006866455078125
0.959,0.0006866455078125
0.9595,7.62939453125e-05
0.96,7.62939453125e-05
0.9605,0.0
0.961,0.0
0.9615,3.814697265625e-05
0.962,3.814697265625e-05
0.9625,0.00026702880859375
0.963,0.00026702880859375
0.9635,0.00087738037109375
0.964,0.00087738037109375
0.9645,0.00057220458984375
0.965,0.00057220458984375
0.9655,0.00041961669921875
0.966,0.00041961669921875
0.9665,3.814697265625e-05
0.967,3.814697265625e-05
0.9675,0.00011444091796875
0.968,0.00011444091796875
0.9685,7.62939453125e-05
0.969,7.62939453125e-05
0.9695,7.62939453125e-05
0.97,7.62939453125e-05
0.9705,0.0002288818359375
0.971,0.0002288818359375
0.9715,0.0005340576171875
0.972,0.0005340576171875
0.9725,0.00041961669921875
0.973,0.00041961669921875
0.9735,3.814697265625e-05
0.974,3.814697265625e-05
0.9745,0.00072479248046875
0.975,0.00072479248046875
0.9755,0.00019073486328125
0.976,0.00019073486328125
0.9765,0.00011444091796875
0.977,0.00011444091796875
0.9775,0.0002288818359375
0.978,0.0002288818359375
0.9785,7.62939453125e-05
0.979,7.62939453125e-05
0.9795,0.000152587890625
0.98,0.000152587890625
0.9805,0.0002288818359375
0.981,0.0002288818359375
0.9815,7.62939453125e-05
0.982,7.62939453125e-05
0.9825,0.0003814697265625
0.983,0.0003814697265625
0.9835,0.000152587890625
0.984,0.000152587890625
0.9845,0.000457763671875
0.985,0.000457763671875
0.9855,0.0002288818359375
0.986,0.0002288818359375
0.9865,-0.00011444091796875
0.987,-0.00011444091796875
0.9875,0.0003814697265625
0.988,0.0003814697265625
0.9885,0.0008392333984375
0.989,0.0008392333984375
0.9895,0.00019073486328125
0.99,0.00019073486328125
0.9905,0.000152587890625
0.991,0.000152587890625
0.9915,-3.814697265625e-05
0.992,-3.814697265625e-05
0.9925,0.00030517578125
0.993,0.00030517578125
0.9935,0.0005340576171875
0.994,0.0005340576171875
0.9945,0.00057220458984375
0.995,0.00057220458984375
0.9955,-3.814697265625e-05
0.996,-3.814697265625e-05
0.9965,0.00011444091796875
0.997,0.00011444091796875
0.9975,-0.000152587890625
0.998,-0.000152587890625
0.9985,7.62939453125e-05
0.999,7.62939453125e-05
0.9995,0.00041961669921875
1.0,0.00041961669921875
1.0005,0.00072479248046875
1.001,0.00072479248046875
1.0015,0.00026702880859375
1.002,0.00026702880859375
1.0025,0.00064849853515625
1.003,0.00064849853515625
1.0035,0.000152587890625
1.004,0.000152587890625
1.0045,3.814697265625e-05
1.005,3.814697265625e-05
1.0055,7.62939453125e-05
1.006,7.62939453125e-05
1.0065,3.814697265625e-05
1.007,3.814697265625e-05
1.0075,-7.62939453125e-05
1.008,-7.62939453125e-05
1.0085,0.00030517578125
1.009,0.00030517578125
1.0095,-7.62939453125e-05
1.01,-7.62939453125e-05
1.0105,0.00011444091796875
1.011,0.00011444091796875
1.0115,3.814697265625e-05
1.012,3.814697265625e-05
1.0125,0.00030517578125
1.013,0.00030517578125
1.0135,0.00034332275390625
1.014,0.00034332275390625
1.0145,7.62939453125e-05
1.015,7.62939453125e-05
1.0155,0.000152587890625
1.016,0.000152587890625
1.0165,0.0003814697265625
1.017,0.0003814697265625
1.0175,0.0005340576171875
1.018,0.0005340576171875
1.0185,0.00049591064453125
1.019,0.00049591064453125
1.0195,0.000152587890625
1.02,0.000152587890625
1.0205,-0.00011444091796875
1.021,-0.00011444091796875
1.0215,0.00041961669921875
1.022,0.00041961669921875
1.0225,-3.814697265625e-05
1.023,-3.814697265625e-05
1.0235,0.00026702880859375
1.024,0.00026702880859375
1.0245,0.00011444091796875
1.025,0.00011444091796875
1.0255,0.0003814697265625
1.026,0.0003814697265625
1.0265,0.0005340576171875
1.027,0.0005340576171875
1.0275,-0.00026702880859375
1.028,-0.00026702880859375
1.0285,7.62939453125e-05
1.029,7.62939453125e-05
1.0295,-3.814697265625e-05
1.03,-3.814697265625e-05
1.0305,0.0009918212890625
1.031,0.0009918212890625
1.0315,0.00080108642578125
1.032,0.00080108642578125
1.0325,3.814697265625e-05
1.033,3.814697265625e-05
1.0335,7.62939453125e-05
1.034,7.62939453125e-05
1.0345,0.00019073486328125
1.035,0.00019073486328125
1.0355,0.00019073486328125
1.036,0.00019073486328125
1.0365,0.000457763671875
1.037,0.000457763671875
1.0375,0.00019073486328125
1.038,0.00019073486328125
1.0385,-3.814697265625e-05
1.039,-3.814697265625e-05
1.0395,0.00026702880859375
1.04,0.00026702880859375
1.0405,-0.00019073486328125
1.041,-0.00019073486328125
1.0415,0.00080108642578125
1.042,0.00080108642578125
1.0425,0.00011444091796875
1.043,0.00011444091796875
1.0435,0.001068115234375
1.044,0.001068115234375
1.0445,0.00019073486328125
1.045,0.00019073486328125
1.0455,0.0
1.046,0.0
1.0465,0.0002288818359375
1.047,0.0002288818359375
1.0475,0.00080108642578125
1.048,0.00080108642578125
1.0485,3.814697265625e-05
1.049,3.814697265625e-05
1.0495,0.00057220458984375
1.05,0.00057220458984375
1.0505,0.0005340576171875
1.051,0.0005340576171875
1.0515,0.00049591064453125
1.052,0.00049591064453125
1.0525,0.00011444091796875
1.053,0.00011444091796875
1.0535,0.00034332275390625
1.054,0.00034332275390625
1.0545,7.62939453125e-05
1.055,7.62939453125e-05
1.0555,0.00019073486328125
1.056,0.00019073486328125
1.0565,0.00030517578125
1.057,0.00030517578125
1.0575,7.62939453125e-05
1.058,7.62939453125e-05
1.0585,0.00030517578125
1.059,0.00030517578125
1.0595,7.62939453125e-05
1.06,7.62939453125e-05
1.0605,0.000457763671875
1.061,0.000457763671875
1.0615,0.0
1.062,0.0
1.0625,0.00064849853515625
1.063,0.00064849853515625
1.0635,3.814697265625e-05
1.064,3.814697265625e-05
1.0645,0.00072479248046875
1.065,0.00072479248046875
1.0655,-0.00011444091796875
1.066,-0.00011444091796875
1.0665,0.00049591064453125
1.067,0.00049591064453125
1.0675,0.00026702880859375
1.068,0.00026702880859375
1.0685,0.0002288818359375
1.069,0.0002288818359375
1.0695,0.00019073486328125
1.07,0.00019073486328125
1.0705,0.0002288818359375
1.071,0.0002288818359375
1.0715,0.00049591064453125
1.072,0.00049591064453125
1.0725,0.0
1.073,0.0
1.0735,0.00072479248046875
1.074,0.00072479248046875
1.0745,0.000152587890625
1.075,0.000152587890625
1.0755,3.814697265625e-05
1.076,3.814697265625e-05
1.0765,0.00019073486328125
1.077,0.00019073486328125
1.0775,0.00041961669921875
1.078,0.00041961669921875
1.0785,0.00011444091796875
1.079,0.00011444091796875
1.0795,0.00057220458984375
1.08,0.00057220458984375
1.0805,0.0
1.081,0.0
1.0815,0.00011444091796875
1.082,0.00011444091796875
1.0825,0.0003814697265625
1.083,0.0003814697265625
1.0835,0.0006103515625
1.084,0.0006103515625
1.0845,3.814697265625e-05
1.085,3.814697265625e-05
1.0855,0.000152587890625
1.086,0.000152587890625
1.0865,0.00011444091796875
1.087,0.00011444091796875
1.0875,7.62939453125e-05
1.088,7.62939453125e-05
1.0885,0.000457763671875
1.089,0.000457763671875
1.0895,0.00026702880859375
1.09,0.00026702880859375
1.0905,7.62939453125e-05
1.091,7.62939453125e-05
1.0915,0.00030517578125
1.092,0.00030517578125
1.0925,-7.62939453125e-05
1.093,-7.62939453125e-05
1.0935,0.0008392333984375
1.094,0.0008392333984375
1.0945,0.00019073486328125
1.095,0.00019073486328125
1.0955,3.814697265625e-05
1.096,3.814697265625e-05
1.0965,0.0006103515625
1.097,0.0006103515625
1.0975,7.62939453125e-05
1.098,7.62939453125e-05
1.0985,0.000152587890625
1.099,0.000152587890625
1.0995,0.00011444091796875
1.1,0.00011444091796875
1.1005,0.00030517578125
1.101,0.00030517578125
1.1015,0.00057220458984375
1.102,0.00057220458984375
1.1025,0.00011444091796875
1.103,0.00011444091796875
1.1035,0.00011444091796875
1.104,0.00011444091796875
1.1045,0.00019073486328125
1.105,0.00019073486328125
1.1055,0.00011444091796875
1.106,0.00011444091796875
1.1065,-3.814697265625e-05
1.107,-3.814697265625e-05
1.1075,3.814697265625e-05
1.108,3.814697265625e-05
1.1085,0.00080108642578125
1.109,0.00080108642578125
1.1095,0.0009918212890625
1.11,0.0009918212890625
1.1105,7.62939453125e-05
1.111,7.62939453125e-05
1.1115,7.62939453125e-05
1.112,7.62939453125e-05
1.1125,0.0005340576171875
1.113,0.0005340576171875
1.1135,0.00011444091796875
1.114,0.00011444091796875
1.1145,7.62939453125e-05
1.115,7.62939453125e-05
1.1155,0.00064849853515625
1.116,0.00064849853515625
1.1165,0.0008392333984375
1.117,0.0008392333984375
1.1175,0.00026702880859375
1.118,0.00026702880859375
1.1185,-3.814697265625e-05
1.119,-3.814697265625e-05
1.1195,7.62939453125e-05
1.12,7.62939453125e-05
1.1205,0.0005340576171875
1.121,0.0005340576171875
1.1215,0.000152587890625
1.122,0.000152587890625
1.1225,0.0
1.123,0.0
1.1235,0.00041961669921875
1.124,0.00041961669921875
1.1245,0.00026702880859375
1.125,0.00026702880859375
1.1255,-3.814697265625e-05
1.126,-3.814697265625e-05
1.1265,0.00057220458984375
1.127,0.00057220458984375
1.1275,0.00019073486328125
1.128,0.00019073486328125
1.1285,-7.62939453125e-05
1.129,-7.62939453125e-05
1.1295,0.00030517578125
1.13,0.00030517578125
1.1305,0.0
1.131,0.0
1.1315,0.0002288818359375
1.132,0.0002288818359375
1.1325,0.00019073486328125
1.133,0.00019073486328125
1.1335,0.00125885009765625
1.134,0.00125885009765625
1.1345,0.00041961669921875
1.135,0.00041961669921875
1.1355,0.000457763671875
1.136,0.000457763671875
1.1365,0.0
1.137,0.0
1.1375,3.814697265625e-05
1.138,3.814697265625e-05
1.1385,7.62939453125e-05
1.139,7.62939453125e-05
1.1395,0.0
1.14,0.0
1.1405,0.0005340576171875
1.141,0.0005340576171875
1.1415,0.000152587890625
1.142,0.000152587890625
1.1425,0.0006103515625
1.143,0.0006103515625
1.1435,0.0
1.144,0.0
1.1445,0.00026702880859375
1.145,0.00026702880859375
1.1455,0.00019073486328125
1.146,0.00019073486328125
1.1465,0.00011444091796875
1.147,0.00011444091796875
1.1475,0.0002288818359375
1.148,0.0002288818359375
1.1485,0.00019073486328125
1.149,0.00019073486328125
1.1495,-0.00011444091796875
1.15,-0.00011444091796875
1.1505,0.00034332275390625
1.151,0.00034332275390625
1.1515,0.00030517578125
1.152,0.00030517578125
1.1525,0.000457763671875
1.153,0.000457763671875
1.1535,-3.814697265625e-05
1.154,-3.814697265625e-05
1.1545,7.62939453125e-05
1.155,7.62939453125e-05
1.1555,0.00011444091796875
1.156,0.00011444091796875
1.1565,3.814697265625e-05
1.157,3.814697265625e-05
1.1575,0.0005340576171875
1.158,0.0005340576171875
1.1585,0.00034332275390625
1.159,0.00034332275390625
1.1595,0.0002288818359375
1.16,0.0002288818359375
1.1605,0.00057220458984375
1.161,0.00057220458984375
1.1615,-0.00026702880859375
1.162,-0.00026702880859375
1.1625,-3.814697265625e-05
1.163,-3.814697265625e-05
1.1635,0.00026702880859375
1.164,0.00026702880859375
1.1645,0.00041961669921875
1.165,0.00041961669921875
1.1655,3.814697265625e-05
1.166,3.814697265625e-05
1.1665,0.0005340576171875
1.167,0.0005340576171875
1.1675,7.62939453125e-05
1.168,7.62939453125e-05
1.1685,0.0002288818359375
1.169,0.0002288818359375
1.1695,0.00026702880859375
1.17,0.00026702880859375
1.1705,0.00019073486328125
1.171,0.00019073486328125
1.1715,0.00026702880859375
1.172,0.00026702880859375
1.1725,0.00057220458984375
1.173,0.00057220458984375
1.1735,0.00057220458984375
1.174,0.00057220458984375
1.1745,7.62939453125e-05
1.175,7.62939453125e-05
1.1755,0.00011444091796875
1.176,0.00011444091796875
1.1765,0.0
1.177,0.0
1.1775,0.00057220458984375
1.178,0.00057220458984375
1.1785,0.00026702880859375
1.179,0.00026702880859375
1.1795,7.62939453125e-05
1.18,7.62939453125e-05
1.1805,0.0006866455078125
1.181,0.0006866455078125
1.1815,7.62939453125e-05
1.182,7.62939453125e-05
1.1825,0.0006866455078125
1.183,0.0006866455078125
1.1835,3.814697265625e-05
1.184,3.814697265625e-05
1.1845,7.62939453125e-05
1.185,7.62939453125e-05
1.1855,0.0003814697265625
1.186,0.0003814697265625
1.1865,7.62939453125e-05
1.187,7.62939453125e-05
1.1875,0.00011444091796875
1.188,0.00011444091796875
1.1885,0.00030517578125
1.189,0.00030517578125
1.1895,7.62939453125e-05
1.19,7.62939453125e-05
1.1905,-0.0002288818359375
1.191,-0.0002288818359375
1.1915,-3.814697265625e-05
1.192,-3.814697265625e-05
1.1925,0.00049591064453125
1.193,0.00049591064453125
1.1935,0.00102996826171875
1.194,0.00102996826171875
1.1945,0.0006866455078125
1.195,0.0006866455078125
1.1955,0.00019073486328125
1.196,0.00019073486328125
1.1965,0.00019073486328125
1.197,0.00019073486328125
1.1975,0.00019073486328125
1.198,0.00019073486328125
1.1985,0.00057220458984375
1.199,0.00057220458984375
1.1995,3.814697265625e-05
1.2,3.814697265625e-05
1.2005,0.00026702880859375
1.201,0.00026702880859375
1.2015,0.00034332275390625
1.202,0.00034332275390625
1.2025,0.0
1.203,0.0
1.2035,7.62939453125e-05
1.204,7.62939453125e-05
1.2045,0.00019073486328125
1.205,0.00019073486328125
1.2055,0.0
1.206,0.0
1.2065,0.00019073486328125
1.207,0.00019073486328125
1.2075,0.00034332275390625
1.208,0.00034332275390625
1.2085,0.00049591064453125
1.209,0.00049591064453125
1.2095,0.0
1.21,0.0
1.2105,0.00019073486328125
1.211,0.00019073486328125
1.2115,0.00019073486328125
1.212,0.00019073486328125
1.2125,0.00030517578125
1.213,0.00030517578125
1.2135,0.00026702880859375
1.214,0.00026702880859375
1.2145,-0.00019073486328125
1.215,-0.00019073486328125
1.2155,0.00011444091796875
1.216,0.00011444091796875
1.2165,0.00041961669921875
1.217,0.00041961669921875
1.2175,7.62939453125e-05
1.218,7.62939453125e-05
1.2185,3.814697265625e-05
1.219,3.814697265625e-05
1.2195,0.00011444091796875
1.22,0.00011444091796875
1.2205,0.00064849853515625
1.221,0.00064849853515625
1.2215,3.814697265625e-05
1.222,3.814697265625e-05
1.2225,0.0
1.223,0.0
1.2235,0.00064849853515625
1.224,0.00064849853515625
1.2245,0.00026702880859375
1.225,0.00026702880859375
1.2255,0.00011444091796875
1.226,0.00011444091796875
1.2265,0.00019073486328125
1.227,0.00019073486328125
1.2275,3.814697265625e-05
1.228,3.814697265625e-05
1.2285,0.0002288818359375
1.229,0.0002288818359375
1.2295,0.000152587890625
1.23,0.000152587890625
1.2305,0.0
1.231,0.0
1.2315,0.00011444091796875
1.232,0.00011444091796875
1.2325,0.0006103515625
1.233,0.0006103515625
1.2335,0.00019073486328125
1.234,0.00019073486328125
1.2345,0.0
1.235,0.0
1.2355,0.000152587890625
1.236,0.000152587890625
1.2365,0.0
1.237,0.0
1.2375,0.00034332275390625
1.238,0.00034332275390625
1.2385,7.62939453125e-05
1.239,7.62939453125e-05
1.2395,-0.000152587890625
1.24,-0.000152587890625
1.2405,0.00030517578125
1.241,0.00030517578125
1.2415,0.00080108642578125
1.242,0.00080108642578125
1.2425,0.00026702880859375
1.243,0.00026702880859375
1.2435,0.00057220458984375
1.244,0.00057220458984375
1.2445,0.0003814697265625
1.245,0.0003814697265625
1.2455,0.0002288818359375
1.246,0.0002288818359375
1.2465,0.00087738037109375
1.247,0.00087738037109375
1.2475,0.0
1.248,0.0
1.2485,3.814697265625e-05
1.249,3.814697265625e-05
1.2495,0.00034332275390625
1.25,0.00034332275390625
1.2505,0.00011444091796875
1.251,0.00011444091796875
1.2515,0.000457763671875
1.252,0.000457763671875
1.2525,0.000152587890625
1.253,0.000152587890625
1.2535,0.0002288818359375
1.254,0.0002288818359375
1.2545,0.00041961669921875
1.255,0.00041961669921875
1.2555,0.0005340576171875
1.256,0.0005340576171875
1.2565,0.00011444091796875
1.257,0.00011444091796875
1.2575,0.00034332275390625
1.258,0.00034332275390625
1.2585,0.00034332275390625
1.259,0.00034332275390625
1.2595,0.00019073486328125
1.26,0.00019073486328125
1.2605,0.0
1.261,0.0
1.2615,-3.814697265625e-05
1.262,-3.814697265625e-05
1.2625,7.62939453125e-05
1.263,7.62939453125e-05
1.2635,3.814697265625e-05
1.264,3.814697265625e-05
1.2645,0.000152587890625
1.265,0.000152587890625
1.2655,0.00034332275390625
1.266,0.00034332275390625
1.2665,0.00030517578125
1.267,0.00030517578125
1.2675,0.00011444091796875
1.268,0.00011444091796875
1.2685,0.000457763671875
1.269,0.000457763671875
1.2695,3.814697265625e-05
1.27,3.814697265625e-05
1.2705,0.0003814697265625
1.271,0.0003814697265625
1.2715,0.00064849853515625
1.272,0.00064849853515625
1.2725,-0.00011444091796875
1.273,-0.00011444091796875
1.2735,0.00011444091796875
1.274,0.00011444091796875
1.2745,7.62939453125e-05
1.275,7.62939453125e-05
1.2755,-3.814697265625e-05
1.276,-3.814697265625e-05
1.2765,0.0005340576171875
1.277,0.0005340576171875
1.2775,0.000152587890625
1.278,0.000152587890625
1.2785,7.62939453125e-05
1.279,7.62939453125e-05
1.2795,7.62939453125e-05
1.28,7.62939453125e-05
1.2805,0.0002288818359375
1.281,0.0002288818359375
1.2815,0.00041961669921875
1.282,0.00041961669921875
1.2825,0.000457763671875
1.283,0.000457763671875
1.2835,-3.814697265625e-05
1.284,-3.814697265625e-05
1.2845,0.00034332275390625
1.285,0.00034332275390625
1.2855,0.000457763671875
1.286,0.000457763671875
1.2865,0.0
1.287,0.0
1.2875,-0.00011444091796875
1.288,-0.00011444091796875
1.2885,0.00019073486328125
1.289,0.00019073486328125
1.2895,0.00072479248046875
1.29,0.00072479248046875
1.2905,0.00030517578125
1.291,0.00030517578125
1.2915,-0.0002288818359375
1.292,-0.0002288818359375
1.2925,0.00011444091796875
1.293,0.00011444091796875
1.2935,0.00011444091796875
1.294,0.00011444091796875
1.2945,0.000152587890625
1.295,0.000152587890625
1.2955,0.00030517578125
1.296,0.00030517578125
1.2965,0.00057220458984375
1.297,0.00057220458984375
1.2975,0.0
1.298,0.0
1.2985,0.0002288818359375
1.299,0.0002288818359375
1.2995,3.814697265625e-05
1.3,3.814697265625e-05
1.3005,0.00026702880859375
1.301,0.00026702880859375
1.3015,3.814697265625e-05
1.302,3.814697265625e-05
1.3025,-3.814697265625e-05
1.303,-3.814697265625e-05
1.3035,0.00034332275390625
1.304,0.00034332275390625
1.3045,0.00049591064453125
1.305,0.00049591064453125
1.3055,-3.814697265625e-05
1.306,-3.814697265625e-05
1.3065,0.00041961669921875
1.307,0.00041961669921875
1.3075,0.0002288818359375
1.308,0.0002288818359375
1.3085,0.00064849853515625
1.309,0.00064849853515625
1.3095,0.00034332275390625
1.31,0.00034332275390625
1.3105,0.00026702880859375
1.311,0.00026702880859375
1.3115,7.62939453125e-05
1.312,7.62939453125e-05
1.3125,0.000457763671875
1.313,0.000457763671875
1.3135,-3.814697265625e-05
1.314,-3.814697265625e-05
1.3145,3.814697265625e-05
1.315,3.814697265625e-05
1.3155,-7.62939453125e-05
1.316,-7.62939453125e-05
1.3165,0.0003814697265625
1.317,0.0003814697265625
1.3175,0.0005340576171875
1.318,0.0005340576171875
1.3185,0.00034332275390625
1.319,0.00034332275390625
1.3195,0.00019073486328125
1.32,0.00019073486328125
1.3205,0.0002288818359375
1.321,0.0002288818359375
1.3215,0.00030517578125
1.322,0.00030517578125
1.3225,0.0006103515625
1.323,0.0006103515625
1.3235,0.00034332275390625
1.324,0.00034332275390625
1.3245,0.000152587890625
1.325,0.000152587890625
1.3255,0.000152587890625
1.326,0.000152587890625
1.3265,-3.814697265625e-05
1.327,-3.814697265625e-05
1.3275,-0.000152587890625
1.328,-0.000152587890625
1.3285,0.00011444091796875
1.329,0.00011444091796875
1.3295,0.00019073486328125
1.33,0.00019073486328125
1.3305,0.00034332275390625
1.331,0.00034332275390625
1.3315,0.0002288818359375
1.332,0.0002288818359375
1.3325,0.0
1.333,0.0
1.3335,0.000152587890625
1.334,0.000152587890625
1.3345,0.00072479248046875
1.335,0.00072479248046875
1.3355,0.00026702880859375
1.336,0.00026702880859375
1.3365,0.00034332275390625
1.337,0.00034332275390625
1.3375,0.0008392333984375
1.338,0.0008392333984375
1.3385,-0.00011444091796875
1.339,-0.00011444091796875
1.3395,0.00026702880859375
1.34,0.00026702880859375
1.3405,0.00026702880859375
1.341,0.00026702880859375
1.3415,3.814697265625e-05
1.342,3.814697265625e-05
1.3425,0.000152587890625
1.343,0.000152587890625
1.3435,7.62939453125e-05
1.344,7.62939453125e-05
1.3445,0.00030517578125
1.345,0.00030517578125
1.3455,0.00041961669921875
1.346,0.00041961669921875
1.3465,0.00019073486328125
1.347,0.00019073486328125
1.3475,0.00030517578125
1.348,0.00030517578125
1.3485,-3.814697265625e-05
1.349,-3.814697265625e-05
1.3495,0.00011444091796875
1.35,0.00011444091796875
1.3505,0.00019073486328125
1.351,0.00019073486328125
1.3515,0.0006103515625
1.352,0.0006103515625
1.3525,0.00019073486328125
1.353,0.00019073486328125
1.3535,0.00041961669921875
1.354,0.00041961669921875
1.3545,0.00034332275390625
1.355,0.00034332275390625
1.3555,0.00064849853515625
1.356,0.00064849853515625
1.3565,0.0002288818359375
1.357,0.0002288818359375
1.3575,-3.814697265625e-05
1.358,-3.814697265625e-05
1.3585,0.00064849853515625
1.359,0.00064849853515625
1.3595,7.62939453125e-05
1.36,7.62939453125e-05
1.3605,7.62939453125e-05
1.361,7.62939453125e-05
1.3615,0.0
1.362,0.0
1.3625,0.00019073486328125
1.363,0.00019073486328125
1.3635,0.0003814697265625
1.364,0.0003814697265625
1.3645,0.00057220458984375
1.365,0.00057220458984375
1.3655,-3.814697265625e-05
1.366,-3.814697265625e-05
1.3665,0.00026702880859375
1.367,0.00026702880859375
1.3675,0.00034332275390625
1.368,0.00034332275390625
1.3685,0.00041961669921875
1.369,0.00041961669921875
1.3695,-7.62939453125e-05
1.37,-7.62939453125e-05
1.3705,0.00011444091796875
1.371,0.00011444091796875
1.3715,7.62939453125e-05
1.372,7.62939453125e-05
1.3725,-3.814697265625e-05
1.373,-3.814697265625e-05
1.3735,0.000457763671875
1.374,0.000457763671875
1.3745,0.0
1.375,0.0
1.3755,0.0
1.376,0.0
1.3765,3.814697265625e-05
1.377,3.814697265625e-05
1.3775,0.00026702880859375
1.378,0.00026702880859375
1.3785,0.0008392333984375
1.379,0.0008392333984375
1.3795,7.62939453125e-05
1.38,7.62939453125e-05
1.3805,-3.814697265625e-05
1.381,-3.814697265625e-05
1.3815,0.0003814697265625
1.382,0.0003814697265625
1.3825,0.0002288818359375
1.383,0.0002288818359375
1.3835,0.000457763671875
1.384,0.000457763671875
1.3845,0.00026702880859375
1.385,0.00026702880859375
1.3855,0.0005340576171875
1.386,0.0005340576171875
1.3865,0.00041961669921875
1.387,0.00041961669921875
1.3875,3.814697265625e-05
1.388,3.814697265625e-05
1.3885,0.0002288818359375
1.389,0.0002288818359375
1.3895,0.000152587890625
1.39,0.000152587890625
1.3905,0.00026702880859375
1.391,0.00026702880859375
1.3915,0.00019073486328125
1.392,0.00019073486328125
1.3925,0.00030517578125
1.393,0.00030517578125
1.3935,0.000152587890625
1.394,0.000152587890625
1.3945,0.00102996826171875
1.395,0.00102996826171875
1.3955,0.0003814697265625
1.396,0.0003814697265625
1.3965,0.0002288818359375
1.397,0.0002288818359375
1.3975,-3.814697265625e-05
1.398,-3.814697265625e-05
1.3985,7.62939453125e-05
1.399,7.62939453125e-05
1.3995,0.0
1.4,0.0
1.4005,0.00049591064453125
1.401,0.00049591064453125
1.4015,0.00080108642578125
1.402,0.00080108642578125
1.4025,0.0006866455078125
1.403,0.0006866455078125
1.4035,0.00034332275390625
1.404,0.00034332275390625
1.4045,0.00087738037109375
1.405,0.00087738037109375
1.4055,0.00019073486328125
1.406,0.00019073486328125
1.4065,0.0005340576171875
1.407,0.0005340576171875
1.4075,0.00118255615234375
1.408,0.00118255615234375
1.4085,0.00064849853515625
1.409,0.00064849853515625
1.4095,0.00011444091796875
1.41,0.00011444091796875
1.4105,-3.814697265625e-05
1.411,-3.814697265625e-05
1.4115,0.00011444091796875
1.412,0.00011444091796875
1.4125,0.00057220458984375
1.413,0.00057220458984375
1.4135,0.00030517578125
1.414,0.00030517578125
1.4145,0.0
1.415,0.0
1.4155,0.00141143798828125
1.416,0.00141143798828125
1.4165,-3.814697265625e-05
1.417,-3.814697265625e-05
1.4175,0.0002288818359375
1.418,0.0002288818359375
1.4185,0.0003814697265625
1.419,0.0003814697265625
1.4195,0.00118255615234375
1.42,0.00118255615234375
1.4205,0.000152587890625
1.421,0.000152587890625
1.4215,0.000152587890625
1.422,0.000152587890625
1.4225,0.00049591064453125
1.423,0.00049591064453125
1.4235,0.0003814697265625
1.424,0.0003814697265625
1.4245,0.000762939453125
1.425,0.000762939453125
1.4255,-0.00019073486328125
1.426,-0.00019073486328125
1.4265,0.00026702880859375
1.427,0.00026702880859375
1.4275,0.0
1.428,0.0
1.4285,3.814697265625e-05
1.429,3.814697265625e-05
1.4295,-0.00019073486328125
1.43,-0.00019073486328125
1.4305,0.00034332275390625
1.431,0.00034332275390625
1.4315,0.00030517578125
1.432,0.00030517578125
1.4325,0.0
1.433,0.0
1.4335,0.00034332275390625
1.434,0.00034332275390625
1.4345,0.00091552734375
1.435,0.00091552734375
1.4355,0.0005340576171875
1.436,0.0005340576171875
1.4365,0.00019073486328125
1.437,0.00019073486328125
1.4375,0.00019073486328125
1.438,0.00019073486328125
1.4385,3.814697265625e-05
1.439,3.814697265625e-05
1.4395,0.00011444091796875
1.44,0.00011444091796875
1.4405,0.000152587890625
1.441,0.000152587890625
1.4415,0.0005340576171875
1.442,0.0005340576171875
1.4425,0.00080108642578125
1.443,0.00080108642578125
1.4435,0.00072479248046875
1.444,0.00072479248046875
1.4445,0.00019073486328125
1.445,0.00019073486328125
1.4455,0.00019073486328125
1.446,0.00019073486328125
1.4465,0.00080108642578125
1.447,0.00080108642578125
1.4475,0.0003814697265625
1.448,0.0003814697265625
1.4485,0.0
1.449,0.0
1.4495,0.000152587890625
1.45,0.000152587890625
1.4505,0.00026702880859375
1.451,0.00026702880859375
1.4515,0.0005340576171875
1.452,0.0005340576171875
1.4525,0.0
1.453,0.0
1.4535,0.000457763671875
1.454,0.000457763671875
1.4545,7.62939453125e-05
1.455,7.62939453125e-05
1.4555,0.0005340576171875
1.456,0.0005340576171875
1.4565,0.00080108642578125
1.457,0.00080108642578125
1.4575,0.0003814697265625
1.458,0.0003814697265625
1.4585,0.000457763671875
1.459,0.000457763671875
1.4595,0.0003814697265625
1.46,0.0003814697265625
1.4605,0.0002288818359375
1.461,0.0002288818359375
1.4615,0.000152587890625
1.462,0.000152587890625
1.4625,0.00019073486328125
1.463,0.00019073486328125
1.4635,0.00011444091796875
1.464,0.00011444091796875
1.4645,0.0006103515625
1.465,0.0006103515625
1.4655,7.62939453125e-05
1.466,7.62939453125e-05
1.4665,0.00011444091796875
1.467,0.00011444091796875
1.4675,7.62939453125e-05
1.468,7.62939453125e-05
1.4685,0.0
1.469,0.0
1.4695,0.00011444091796875
1.47,0.00011444091796875
1.4705,0.000457763671875
1.471,0.000457763671875
1.4715,0.00019073486328125
1.472,0.00019073486328125
1.4725,0.00019073486328125
1.473,0.00019073486328125
1.4735,0.0
1.474,0.0
1.4745,0.000152587890625
1.475,0.000152587890625
1.4755,0.00030517578125
1.476,0.00030517578125
1.4765,3.814697265625e-05
1.477,3.814697265625e-05
1.4775,0.00011444091796875
1.478,0.00011444091796875
1.4785,0.00064849853515625
1.479,0.00064849853515625
1.4795,7.62939453125e-05
1.48,7.62939453125e-05
1.4805,0.0003814697265625
1.481,0.0003814697265625
1.4815,0.00087738037109375
1.482,0.00087738037109375
1.4825,-3.814697265625e-05
1.483,-3.814697265625e-05
1.4835,0.0003814697265625
1.484,0.0003814697265625
1.4845,-7.62939453125e-05
1.485,-7.62939453125e-05
1.4855,0.0
1.486,0.0
1.4865,0.001068115234375
1.487,0.001068115234375
1.4875,0.00049591064453125
1.488,0.00049591064453125
1.4885,0.000152587890625
1.489,0.000152587890625
1.4895,0.00026702880859375
1.49,0.00026702880859375
1.4905,-0.00019073486328125
1.491,-0.00019073486328125
1.4915,3.814697265625e-05
1.492,3.814697265625e-05
1.4925,0.00030517578125
1.493,0.00030517578125
1.4935,0.00041961669921875
1.494,0.00041961669921875
1.4945,-3.814697265625e-05
1.495,-3.814697265625e-05
1.4955,3.814697265625e-05
1.496,3.814697265625e-05
1.4965,-0.00011444091796875
1.497,-0.00011444091796875
1.4975,0.00034332275390625
1.498,0.00034332275390625
1.4985,0.00057220458984375
1.499,0.00057220458984375
1.4995,3.814697265625e-05
1.5,3.814697265625e-05
1.5005,0.000762939453125
1.501,0.000762939453125
1.5015,0.0003814697265625
1.502,0.0003814697265625
1.5025,0.0006866455078125
1.503,0.0006866455078125
1.5035,0.00041961669921875
1.504,0.00041961669921875
1.5045,0.0003814697265625
1.505,0.0003814697265625
1.5055,0.00080108642578125
1.506,0.00080108642578125
1.5065,-7.62939453125e-05
1.507,-7.62939453125e-05
1.5075,0.000762939453125
1.508,0.000762939453125
1.5085,0.00019073486328125
1.509,0.00019073486328125
1.5095,0.0
1.51,0.0
1.5105,0.00019073486328125
1.511,0.00019073486328125
1.5115,-0.0003814697265625
1.512,-0.0003814697265625
1.5125,0.00057220458984375
1.513,0.00057220458984375
1.5135,0.00030517578125
1.514,0.00030517578125
1.5145,0.0003814697265625
1.515,0.0003814697265625
1.5155,0.0002288818359375
1.516,0.0002288818359375
1.5165,0.00034332275390625
1.517,0.00034332275390625
1.5175,0.00030517578125
1.518,0.00030517578125
1.5185,3.814697265625e-05
1.519,3.814697265625e-05
1.5195,0.000152587890625
1.52,0.000152587890625
1.5205,7.62939453125e-05
1.521,7.62939453125e-05
1.5215,3.814697265625e-05
1.522,3.814697265625e-05
1.5225,0.0003814697265625
1.523,0.0003814697265625
1.5235,0.0005340576171875
1.524,0.0005340576171875
1.5245,0.00034332275390625
1.525,0.00034332275390625
1.5255,0.0002288818359375
1.526,0.0002288818359375
1.5265,0.00019073486328125
1.527,0.00019073486328125
1.5275,0.0005340576171875
1.528,0.0005340576171875
1.5285,0.00034332275390625
1.529,0.00034332275390625
1.5295,0.00011444091796875
1.53,0.00011444091796875
1.5305,0.0
1.531,0.0
1.5315,3.814697265625e-05
1.532,3.814697265625e-05
1.5325,0.000762939453125
1.533,0.000762939453125
1.5335,0.00026702880859375
1.534,0.00026702880859375
1.5345,0.00095367431640625
1.535,0.00095367431640625
1.5355,7.62939453125e-05
1.536,7.62939453125e-05
1.5365,0.0003814697265625
1.537,0.0003814697265625
1.5375,0.0003814697265625
1.538,0.0003814697265625
1.5385,0.00034332275390625
1.539,0.00034332275390625
1.5395,3.814697265625e-05
1.54,3.814697265625e-05
1.5405,0.00026702880859375
1.541,0.00026702880859375
1.5415,0.0003814697265625
1.542,0.0003814697265625
1.5425,0.00011444091796875
1.543,0.00011444091796875
1.5435,0.0
1.544,0.0
1.5445,0.0003814697265625
1.545,0.0003814697265625
1.5455,0.00019073486328125
1.546,0.00019073486328125
1.5465,0.0006866455078125
1.547,0.0006866455078125
1.5475,0.00030517578125
1.548,0.00030517578125
1.5485,0.0006103515625
1.549,0.0006103515625
1.5495,0.00030517578125
1.55,0.00030517578125
1.5505,0.0002288818359375
1.551,0.0002288818359375
1.5515,0.00110626220703125
1.552,0.00110626220703125
1.5525,7.62939453125e-05
1.553,7.62939453125e-05
1.5535,0.0002288818359375
1.554,0.0002288818359375
1.5545,0.000152587890625
1.555,0.000152587890625
1.5555,0.000152587890625
1.556,0.000152587890625
1.5565,-7.62939453125e-05
1.557,-7.62939453125e-05
1.5575,0.00087738037109375
1.558,0.00087738037109375
1.5585,0.00011444091796875
1.559,0.00011444091796875
1.5595,0.0002288818359375
1.56,0.0002288818359375
1.5605,0.00049591064453125
1.561,0.00049591064453125
1.5615,0.00026702880859375
1.562,0.00026702880859375
1.5625,0.00072479248046875
1.563,0.00072479248046875
1.5635,0.0002288818359375
1.564,0.0002288818359375
1.5645,0.00026702880859375
1.565,0.00026702880859375
1.5655,-3.814697265625e-05
1.566,-3.814697265625e-05
1.5665,0.00019073486328125
1.567,0.00019073486328125
1.5675,-0.00011444091796875
1.568,-0.00011444091796875
1.5685,-3.814697265625e-05
1.569,-3.814697265625e-05
1.5695,0.00049591064453125
1.57,0.00049591064453125
1.5705,0.00019073486328125
1.571,0.00019073486328125
1.5715,0.00049591064453125
1.572,0.00049591064453125
1.5725,0.00026702880859375
1.573,0.00026702880859375
1.5735,0.00026702880859375
1.574,0.00026702880859375
1.5745,0.0002288818359375
1.575,0.0002288818359375
1.5755,0.00019073486328125
1.576,0.00019073486328125
1.5765,0.00034332275390625
1.577,0.00034332275390625
1.5775,-7.62939453125e-05
1.578,-7.62939453125e-05
1.5785,-3.814697265625e-05
1.579,-3.814697265625e-05
1.5795,0.00049591064453125
1.58,0.00049591064453125
1.5805,-7.62939453125e-05
1.581,-7.62939453125e-05
1.5815,0.00019073486328125
1.582,0.00019073486328125
1.5825,0.00011444091796875
1.583,0.00011444091796875
1.5835,7.62939453125e-05
1.584,7.62939453125e-05
1.5845,7.62939453125e-05
1.585,7.62939453125e-05
1.5855,0.000152587890625
1.586,0.000152587890625
1.5865,0.0002288818359375
1.587,0.0002288818359375
1.5875,0.00064849853515625
1.588,0.00064849853515625
1.5885,0.0
1.589,0.0
1.5895,0.00034332275390625
1.59,0.00034332275390625
1.5905,-7.62939453125e-05
1.591,-7.62939453125e-05
1.5915,0.0
1.592,0.0
1.5925,-0.00041961669921875
1.593,-0.00041961669921875
1.5935,0.000457763671875
1.594,0.000457763671875
1.5945,0.0002288818359375
1.595,0.0002288818359375
1.5955,0.0002288818359375
1.596,0.0002288818359375
1.5965,0.000457763671875
1.597,0.000457763671875
1.5975,3.814697265625e-05
1.598,3.814697265625e-05
1.5985,0.00030517578125
1.599,0.00030517578125
1.5995,0.00034332275390625
1.6,0.00034332275390625
1.6005,0.0002288818359375
1.601,0.0002288818359375
1.6015,7.62939453125e-05
1.602,7.62939453125e-05
1.6025,7.62939453125e-05
1.603,7.62939453125e-05
1.6035,0.00011444091796875
1.604,0.00011444091796875
1.6045,3.814697265625e-05
1.605,3.814697265625e-05
1.6055,0.0016021728515625
1.606,0.0016021728515625
1.6065,-0.00049591064453125
1.607,-0.00049591064453125
1.6075,7.62939453125e-05
1.608,7.62939453125e-05
1.6085,-0.00011444091796875
1.609,-0.00011444091796875
1.6095,0.00030517578125
1.61,0.00030517578125
1.6105,0.00019073486328125
1.611,0.00019073486328125
1.6115,0.00041961669921875
1.612,0.00041961669921875
1.6125,0.0
1.613,0.0
1.6135,0.00026702880859375
1.614,0.00026702880859375
1.6145,0.000152587890625
1.615,0.000152587890625
1.6155,0.000457763671875
1.616,0.000457763671875
1.6165,-3.814697265625e-05
1.617,-3.814697265625e-05
1.6175,0.00041961669921875
1.618,0.00041961669921875
1.6185,0.00011444091796875
1.619,0.00011444091796875
1.6195,0.00011444091796875
1.62,0.00011444091796875
1.6205,0.0002288818359375
1.621,0.0002288818359375
1.6215,0.00041961669921875
1.622,0.00041961669921875
1.6225,0.00019073486328125
1.623,0.00019073486328125
1.6235,-7.62939453125e-05
1.624,-7.62939453125e-05
1.6245,0.0
1.625,0.0
1.6255,-7.62939453125e-05
1.626,-7.62939453125e-05
1.6265,-0.00011444091796875
1.627,-0.00011444091796875
1.6275,0.0006103515625
1.628,0.0006103515625
1.6285,0.0003814697265625
1.629,0.0003814697265625
1.6295,0.00011444091796875
1.63,0.00011444091796875
1.6305,0.0003814697265625
1.631,0.0003814697265625
1.6315,0.0003814697265625
1.632,0.0003814697265625
1.6325,0.00019073486328125
1.633,0.00019073486328125
1.6335,0.00057220458984375
1.634,0.00057220458984375
1.6345,0.0
1.635,0.0
1.6355,0.0006103515625
1.636,0.0006103515625
1.6365,-3.814697265625e-05
1.637,-3.814697265625e-05
1.6375,0.0002288818359375
1.638,0.0002288818359375
1.6385,3.814697265625e-05
1.639,3.814697265625e-05
1.6395,0.000152587890625
1.64,0.000152587890625
1.6405,0.0006103515625
1.641,0.0006103515625
1.6415,0.00030517578125
1.642,0.00030517578125
1.6425,3.814697265625e-05
1.643,3.814697265625e-05
1.6435,0.00057220458984375
1.644,0.00057220458984375
1.6445,0.00072479248046875
1.645,0.00072479248046875
1.6455,0.0003814697265625
1.646,0.0003814697265625
1.6465,0.00034332275390625
1.647,0.00034332275390625
1.6475,7.62939453125e-05
1.648,7.62939453125e-05
1.6485,-3.814697265625e-05
1.649,-3.814697265625e-05
1.6495,0.0002288818359375
1.65,0.0002288818359375
1.6505,0.0006866455078125
1.651,0.0006866455078125
1.6515,0.00026702880859375
1.652,0.00026702880859375
1.6525,0.00041961669921875
1.653,0.00041961669921875
1.6535,0.000152587890625
1.654,0.000152587890625
1.6545,0.001068115234375
1.655,0.001068115234375
1.6555,0.00019073486328125
1.656,0.00019073486328125
1.6565,0.00030517578125
1.657,0.00030517578125
1.6575,0.00019073486328125
1.658,0.00019073486328125
1.6585,0.0006103515625
1.659,0.0006103515625
1.6595,0.00019073486328125
1.66,0.00019073486328125
1.6605,0.0002288818359375
1.661,0.0002288818359375
1.6615,0.00064849853515625
1.662,0.00064849853515625
1.6625,3.814697265625e-05
1.663,3.814697265625e-05
1.6635,7.62939453125e-05
1.664,7.62939453125e-05
1.6645,0.0
1.665,0.0
1.6655,0.00030517578125
1.666,0.00030517578125
1.6665,7.62939453125e-05
1.667,7.62939453125e-05
1.6675,0.000457763671875
1.668,0.000457763671875
1.6685,7.62939453125e-05
1.669,7.62939453125e-05
1.6695,0.0002288818359375
1.67,0.0002288818359375
1.6705,-3.814697265625e-05
1.671,-3.814697265625e-05
1.6715,7.62939453125e-05
1.672,7.62939453125e-05
1.6725,0.00030517578125
1.673,0.00030517578125
1.6735,0.00041961669921875
1.674,0.00041961669921875
1.6745,0.00057220458984375
1.675,0.00057220458984375
1.6755,0.00034332275390625
1.676,0.00034332275390625
1.6765,0.0005340576171875
1.677,0.0005340576171875
1.6775,3.814697265625e-05
1.678,3.814697265625e-05
1.6785,0.000457763671875
1.679,0.000457763671875
1.6795,0.0002288818359375
1.68,0.0002288818359375
1.6805,0.00011444091796875
1.681,0.00011444091796875
1.6815,0.00034332275390625
1.682,0.00034332275390625
1.6825,0.0006866455078125
1.683,0.0006866455078125
1.6835,0.00064849853515625
1.684,0.00064849853515625
1.6845,0.00019073486328125
1.685,0.00019073486328125
1.6855,0.00041961669921875
1.686,0.00041961669921875
1.6865,0.00041961669921875
1.687,0.00041961669921875
1.6875,0.00026702880859375
1.688,0.00026702880859375
1.6885,0.0002288818359375
1.689,0.0002288818359375
1.6895,0.00026702880859375
1.69,0.00026702880859375
1.6905,-0.000152587890625
1.691,-0.000152587890625
1.6915,0.0006103515625
1.692,0.0006103515625
1.6925,0.00041961669921875
1.693,0.00041961669921875
1.6935,0.0
1.694,0.0
1.6945,0.00041961669921875
1.695,0.00041961669921875
1.6955,0.00026702880859375
1.696,0.00026702880859375
1.6965,3.814697265625e-05
1.697,3.814697265625e-05
1.6975,0.00019073486328125
1.698,0.00019073486328125
1.6985,0.00041961669921875
1.699,0.00041961669921875
1.6995,0.0006103515625
1.7,0.0006103515625
1.7005,0.000762939453125
1.701,0.000762939453125
1.7015,0.0002288818359375
1.702,0.0002288818359375
1.7025,0.00011444091796875
1.703,0.00011444091796875
1.7035,0.0006103515625
1.704,0.0006103515625
1.7045,-0.00011444091796875
1.705,-0.00011444091796875
1.7055,3.814697265625e-05
1.706,3.814697265625e-05
1.7065,0.000152587890625
1.707,0.000152587890625
1.7075,-3.814697265625e-05
1.708,-3.814697265625e-05
1.7085,0.00019073486328125
1.709,0.00019073486328125
1.7095,7.62939453125e-05
1.71,7.62939453125e-05
1.7105,0.0002288818359375
1.711,0.0002288818359375
1.7115,0.0006866455078125
1.712,0.0006866455078125
1.7125,0.00034332275390625
1.713,0.00034332275390625
1.7135,0.00072479248046875
1.714,0.00072479248046875
1.7145,-0.000152587890625
1.715,-0.000152587890625
1.7155,0.00026702880859375
1.716,0.00026702880859375
1.7165,-0.00011444091796875
1.717,-0.00011444091796875
1.7175,0.00041961669921875
1.718,0.00041961669921875
1.7185,0.0003814697265625
1.719,0.0003814697265625
1.7195,0.0003814697265625
1.72,0.0003814697265625
1.7205,0.0
1.721,0.0
1.7215,0.00019073486328125
1.722,0.00019073486328125
1.7225,0.000152587890625
1.723,0.000152587890625
1.7235,0.000152587890625
1.724,0.000152587890625
1.7245,0.00019073486328125
1.725,0.00019073486328125
1.7255,0.00041961669921875
1.726,0.00041961669921875
1.7265,0.0003814697265625
1.727,0.0003814697265625
1.7275,0.00019073486328125
1.728,0.00019073486328125
1.7285,0.00011444091796875
1.729,0.00011444091796875
1.7295,7.62939453125e-05
1.73,7.62939453125e-05
1.7305,0.0006103515625
1.731,0.0006103515625
1.7315,0.0
1.732,0.0
1.7325,0.0002288818359375
1.733,0.0002288818359375
1.7335,0.00011444091796875
1.734,0.00011444091796875
1.7345,-7.62939453125e-05
1.735,-7.62939453125e-05
1.7355,0.00011444091796875
1.736,0.00011444091796875
1.7365,0.00072479248046875
1.737,0.00072479248046875
1.7375,0.000152587890625
1.738,0.000152587890625
1.7385,0.00019073486328125
1.739,0.00019073486328125
1.7395,0.00026702880859375
1.74,0.00026702880859375
1.7405,3.814697265625e-05
1.741,3.814697265625e-05
1.7415,-7.62939453125e-05
1.742,-7.62939453125e-05
1.7425,0.00026702880859375
1.743,0.00026702880859375
1.7435,7.62939453125e-05
1.744,7.62939453125e-05
1.7445,3.814697265625e-05
1.745,3.814697265625e-05
1.7455,-7.62939453125e-05
1.746,-7.62939453125e-05
1.7465,0.00019073486328125
1.747,0.00019073486328125
1.7475,0.00034332275390625
1.748,0.00034332275390625
1.7485,7.62939453125e-05
1.749,7.62939453125e-05
1.7495,-0.00019073486328125
1.75,-0.00019073486328125
1.7505,0.0006103515625
1.751,0.0006103515625
1.7515,0.00030517578125
1.752,0.00030517578125
1.7525,0.00026702880859375
1.753,0.00026702880859375
1.7535,0.00011444091796875
1.754,0.00011444091796875
1.7545,0.00019073486328125
1.755,0.00019073486328125
1.7555,0.0006866455078125
1.756,0.0006866455078125
1.7565,7.62939453125e-05
1.757,7.62939453125e-05
1.7575,0.00049591064453125
1.758,0.00049591064453125
1.7585,-7.62939453125e-05
1.759,-7.62939453125e-05
1.7595,0.00011444091796875
1.76,0.00011444091796875
1.7605,0.0006866455078125
1.761,0.0006866455078125
1.7615,3.814697265625e-05
1.762,3.814697265625e-05
1.7625,0.00057220458984375
1.763,0.00057220458984375
1.7635,0.000457763671875
1.764,0.000457763671875
1.7645,0.0002288818359375
1.765,0.0002288818359375
1.7655,0.00011444091796875
1.766,0.00011444091796875
1.7665,-0.000152587890625
1.767,-0.000152587890625
1.7675,0.0006866455078125
1.768,0.0006866455078125
1.7685,7.62939453125e-05
1.769,7.62939453125e-05
1.7695,0.00080108642578125
1.77,0.00080108642578125
1.7705,0.000152587890625
1.771,0.000152587890625
1.7715,0.00034332275390625
1.772,0.00034332275390625
1.7725,0.000762939453125
1.773,0.000762939453125
1.7735,0.00019073486328125
1.774,0.00019073486328125
1.7745,-7.62939453125e-05
1.775,-7.62939453125e-05
1.7755,0.00057220458984375
1.776,0.00057220458984375
1.7765,0.0003814697265625
1.777,0.0003814697265625
1.7775,0.00019073486328125
1.778,0.00019073486328125
1.7785,0.00057220458984375
1.779,0.00057220458984375
1.7795,0.00019073486328125
1.78,0.00019073486328125
1.7805,0.00049591064453125
1.781,0.00049591064453125
1.7815,0.00041961669921875
1.782,0.00041961669921875
1.7825,0.0003814697265625
1.783,0.0003814697265625
1.7835,0.00030517578125
1.784,0.00030517578125
1.7845,-0.000152587890625
1.785,-0.000152587890625
1.7855,0.0011444091796875
1.786,0.0011444091796875
1.7865,-3.814697265625e-05
1.787,-3.814697265625e-05
1.7875,0.0
1.788,0.0
1.7885,-7.62939453125e-05
1.789,-7.62939453125e-05
1.7895,0.00011444091796875
1.79,0.00011444091796875
1.7905,0.00019073486328125
1.791,0.00019073486328125
1.7915,0.00030517578125
1.792,0.00030517578125
1.7925,7.62939453125e-05
1.793,7.62939453125e-05
1.7935,0.0003814697265625
1.794,0.0003814697265625
1.7945,3.814697265625e-05
1.795,3.814697265625e-05
1.7955,0.00064849853515625
1.796,0.00064849853515625
1.7965,0.000457763671875
1.797,0.000457763671875
1.7975,0.0003814697265625
1.798,0.0003814697265625
1.7985,0.00026702880859375
1.799,0.00026702880859375
1.7995,0.0003814697265625
1.8,0.0003814697265625
1.8005,0.0006103515625
1.801,0.0006103515625
1.8015,7.62939453125e-05
1.802,7.62939453125e-05
1.8025,0.00041961669921875
1.803,0.00041961669921875
1.8035,0.00041961669921875
1.804,0.00041961669921875
1.8045,0.00011444091796875
1.805,0.00011444091796875
1.8055,0.00011444091796875
1.806,0.00011444091796875
1.8065,-3.814697265625e-05
1.807,-3.814697265625e-05
1.8075,0.00019073486328125
1.808,0.00019073486328125
1.8085,0.00049591064453125
1.809,0.00049591064453125
1.8095,0.0003814697265625
1.81,0.0003814697265625
1.8105,0.00030517578125
1.811,0.00030517578125
1.8115,0.00034332275390625
1.812,0.00034332275390625
1.8125,0.00041961669921875
1.813,0.00041961669921875
1.8135,3.814697265625e-05
1.814,3.814697265625e-05
1.8145,0.00019073486328125
1.815,0.00019073486328125
1.8155,-0.000152587890625
1.816,-0.000152587890625
1.8165,0.00034332275390625
1.817,0.00034332275390625
1.8175,-0.00011444091796875
1.818,-0.00011444091796875
1.8185,7.62939453125e-05
1.819,7.62939453125e-05
1.8195,0.00019073486328125
1.82,0.00019073486328125
1.8205,0.000152587890625
1.821,0.000152587890625
1.8215,0.00057220458984375
1.822,0.00057220458984375
1.8225,0.00080108642578125
1.823,0.00080108642578125
1.8235,3.814697265625e-05
1.824,3.814697265625e-05
1.8245,0.00019073486328125
1.825,0.00019073486328125
1.8255,-7.62939453125e-05
1.826,-7.62939453125e-05
1.8265,-7.62939453125e-05
1.827,-7.62939453125e-05
1.8275,0.0002288818359375
1.828,0.0002288818359375
1.8285,-0.000152587890625
1.829,-0.000152587890625
1.8295,0.0
1.83,0.0
1.8305,-7.62939453125e-05
1.831,-7.62939453125e-05
1.8315,-3.814697265625e-05
1.832,-3.814697265625e-05
1.8325,0.00049591064453125
1.833,0.00049591064453125
1.8335,0.00030517578125
1.834,0.00030517578125
1.8345,0.0
1.835,0.0
1.8355,0.00030517578125
1.836,0.00030517578125
1.8365,0.00019073486328125
1.837,0.00019073486328125
1.8375,0.000457763671875
1.838,0.000457763671875
1.8385,0.00011444091796875
1.839,0.00011444091796875
1.8395,7.62939453125e-05
1.84,7.62939453125e-05
1.8405,-3.814697265625e-05
1.841,-3.814697265625e-05
1.8415,-7.62939453125e-05
1.842,-7.62939453125e-05
1.8425,0.00034332275390625
1.843,0.00034332275390625
1.8435,0.00011444091796875
1.844,0.00011444091796875
1.8445,0.00011444091796875
1.845,0.00011444091796875
1.8455,0.00095367431640625
1.846,0.00095367431640625
1.8465,0.00026702880859375
1.847,0.00026702880859375
1.8475,0.000152587890625
1.848,0.000152587890625
1.8485,0.0006866455078125
1.849,0.0006866455078125
1.8495,0.0002288818359375
1.85,0.0002288818359375
1.8505,0.0
1.851,0.0
1.8515,0.00030517578125
1.852,0.00030517578125
1.8525,3.814697265625e-05
1.853,3.814697265625e-05
1.8535,0.0003814697265625
1.854,0.0003814697265625
1.8545,0.0002288818359375
1.855,0.0002288818359375
1.8555,0.000457763671875
1.856,0.000457763671875
1.8565,-0.00011444091796875
1.857,-0.00011444091796875
1.8575,0.00064849853515625
1.858,0.00064849853515625
1.8585,0.00026702880859375
1.859,0.00026702880859375
1.8595,0.0
1.86,0.0
1.8605,0.00026702880859375
1.861,0.00026702880859375
1.8615,-0.00011444091796875
1.862,-0.00011444091796875
1.8625,0.0003814697265625
1.863,0.0003814697265625
1.8635,0.00011444091796875
1.864,0.00011444091796875
1.8645,0.00011444091796875
1.865,0.00011444091796875
1.8655,0.00049591064453125
1.866,0.00049591064453125
1.8665,0.00011444091796875
1.867,0.00011444091796875
1.8675,0.000762939453125
1.868,0.000762939453125
1.8685,0.00034332275390625
1.869,0.00034332275390625
1.8695,0.0002288818359375
1.87,0.0002288818359375
1.8705,7.62939453125e-05
1.871,7.62939453125e-05
1.8715,0.000152587890625
1.872,0.000152587890625
1.8725,0.00026702880859375
1.873,0.00026702880859375
1.8735,0.0
1.874,0.0
1.8745,0.0003814697265625
1.875,0.0003814697265625
1.8755,0.00034332275390625
1.876,0.00034332275390625
1.8765,0.00026702880859375
1.877,0.00026702880859375
1.8775,0.0002288818359375
1.878,0.0002288818359375
1.8785,0.0002288818359375
1.879,0.0002288818359375
1.8795,0.000457763671875
1.88,0.000457763671875
1.8805,0.00049591064453125
1.881,0.00049591064453125
1.8815,0.00064849853515625
1.882,0.00064849853515625
1.8825,-3.814697265625e-05
1.883,-3.814697265625e-05
1.8835,7.62939453125e-05
1.884,7.62939453125e-05
1.8845,0.00049591064453125
1.885,0.00049591064453125
1.8855,0.00034332275390625
1.886,0.00034332275390625
1.8865,-0.00041961669921875
1.887,-0.00041961669921875
1.8875,-0.000152587890625
1.888,-0.000152587890625
1.8885,0.00064849853515625
1.889,0.00064849853515625
1.8895,0.0006103515625
1.89,0.0006103515625
1.8905,0.0005340576171875
1.891,0.0005340576171875
1.8915,0.00011444091796875
1.892,0.00011444091796875
1.8925,0.00041961669921875
1.893,0.00041961669921875
1.8935,0.00064849853515625
1.894,0.00064849853515625
1.8945,0.00041961669921875
1.895,0.00041961669921875
1.8955,0.00019073486328125
1.896,0.00019073486328125
1.8965,0.00026702880859375
1.897,0.00026702880859375
1.8975,0.00034332275390625
1.898,0.00034332275390625
1.8985,0.0002288818359375
1.899,0.0002288818359375
1.8995,0.0
1.9,0.0
1.9005,0.0005340576171875
1.901,0.0005340576171875
1.9015,3.814697265625e-05
1.902,3.814697265625e-05
1.9025,0.00057220458984375
1.903,0.00057220458984375
1.9035,0.00019073486328125
1.904,0.00019073486328125
1.9045,0.000457763671875
1.905,0.000457763671875
1.9055,0.00064849853515625
1.906,0.00064849853515625
1.9065,0.000457763671875
1.907,0.000457763671875
1.9075,0.00072479248046875
1.908,0.00072479248046875
1.9085,0.00011444091796875
1.909,0.00011444091796875
1.9095,3.814697265625e-05
1.91,3.814697265625e-05
1.9105,-0.0002288818359375
1.911,-0.0002288818359375
1.9115,0.00011444091796875
1.912,0.00011444091796875
1.9125,0.0002288818359375
1.913,0.0002288818359375
1.9135,0.0002288818359375
1.914,0.0002288818359375
1.9145,0.00011444091796875
1.915,0.00011444091796875
1.9155,0.00030517578125
1.916,0.00030517578125
1.9165,0.00041961669921875
1.917,0.00041961669921875
1.9175,0.0005340576171875
1.918,0.0005340576171875
1.9185,0.0009918212890625
1.919,0.0009918212890625
1.9195,0.00011444091796875
1.92,0.00011444091796875
1.9205,0.0003814697265625
1.921,0.0003814697265625
1.9215,0.00034332275390625
1.922,0.00034332275390625
1.9225,0.00080108642578125
1.923,0.00080108642578125
1.9235,-7.62939453125e-05
1.924,-7.62939453125e-05
1.9245,0.0002288818359375
1.925,0.0002288818359375
1.9255,0.00034332275390625
1.926,0.00034332275390625
1.9265,-3.814697265625e-05
1.927,-3.814697265625e-05
1.9275,0.0002288818359375
1.928,0.0002288818359375
1.9285,0.000152587890625
1.929,0.000152587890625
1.9295,3.814697265625e-05
1.93,3.814697265625e-05
1.9305,0.00041961669921875
1.931,0.00041961669921875
1.9315,0.00110626220703125
1.932,0.00110626220703125
1.9325,7.62939453125e-05
1.933,7.62939453125e-05
1.9335,0.00019073486328125
1.934,0.00019073486328125
1.9345,0.000762939453125
1.935,0.000762939453125
1.9355,0.00030517578125
1.936,0.00030517578125
1.9365,0.000457763671875
1.937,0.000457763671875
1.9375,0.000457763671875
1.938,0.000457763671875
1.9385,0.00041961669921875
1.939,0.00041961669921875
1.9395,0.00041961669921875
1.94,0.00041961669921875
1.9405,7.62939453125e-05
1.941,7.62939453125e-05
1.9415,0.00019073486328125
1.942,0.00019073486328125
1.9425,0.0
1.943,0.0
1.9435,0.00011444091796875
1.944,0.00011444091796875
1.9445,0.0003814697265625
1.945,0.0003814697265625
1.9455,0.0
1.946,0.0
1.9465,3.814697265625e-05
1.947,3.814697265625e-05
1.9475,-0.0002288818359375
1.948,-0.0002288818359375
1.9485,0.000152587890625
1.949,0.000152587890625
1.9495,0.00026702880859375
1.95,0.00026702880859375
1.9505,0.000152587890625
1.951,0.000152587890625
1.9515,0.000152587890625
1.952,0.000152587890625
1.9525,-3.814697265625e-05
1.953,-3.814697265625e-05
1.9535,0.0003814697265625
1.954,0.0003814697265625
1.9545,0.00011444091796875
1.955,0.00011444091796875
1.9555,3.814697265625e-05
1.956,3.814697265625e-05
1.9565,7.62939453125e-05
1.957,7.62939453125e-05
1.9575,0.00019073486328125
1.958,0.00019073486328125
1.9585,0.0003814697265625
1.959,0.0003814697265625
1.9595,0.0003814697265625
1.96,0.0003814697265625
1.9605,-0.0002288818359375
1.961,-0.0002288818359375
1.9615,0.0
1.962,0.0
1.9625,0.0
1.963,0.0
1.9635,0.0002288818359375
1.964,0.0002288818359375
1.9645,7.62939453125e-05
1.965,7.62939453125e-05
1.9655,0.00019073486328125
1.966,0.00019073486328125
1.9665,3.814697265625e-05
1.967,3.814697265625e-05
1.9675,0.00019073486328125
1.968,0.00019073486328125
1.9685,0.0002288818359375
1.969,0.0002288818359375
1.9695,-0.00019073486328125
1.97,-0.00019073486328125
1.9705,0.0003814697265625
1.971,0.0003814697265625
1.9715,0.00072479248046875
1.972,0.00072479248046875
1.9725,0.0006103515625
1.973,0.0006103515625
1.9735,3.814697265625e-05
1.974,3.814697265625e-05
1.9745,0.00026702880859375
1.975,0.00026702880859375
1.9755,3.814697265625e-05
1.976,3.814697265625e-05
1.9765,0.00026702880859375
1.977,0.00026702880859375
1.9775,0.00011444091796875
1.978,0.00011444091796875
1.9785,3.814697265625e-05
1.979,3.814697265625e-05
1.9795,0.00026702880859375
1.98,0.00026702880859375
1.9805,0.0002288818359375
1.981,0.0002288818359375
1.9815,0.00064849853515625
1.982,0.00064849853515625
1.9825,0.0003814697265625
1.983,0.0003814697265625
1.9835,0.0
1.984,0.0
1.9845,0.0003814697265625
1.985,0.0003814697265625
1.9855,0.000152587890625
1.986,0.000152587890625
1.9865,0.00026702880859375
1.987,0.00026702880859375
1.9875,-3.814697265625e-05
1.988,-3.814697265625e-05
1.9885,-3.814697265625e-05
1.989,-3.814697265625e-05
1.9895,0.00019073486328125
1.99,0.00019073486328125
1.9905,0.000457763671875
1.991,0.000457763671875
1.9915,0.000457763671875
1.992,0.000457763671875
1.9925,0.000152587890625
1.993,0.000152587890625
1.9935,0.00011444091796875
1.994,0.00011444091796875
1.9945,7.62939453125e-05
1.995,7.62939453125e-05
1.9955,0.0
1.996,0.0
1.9965,3.814697265625e-05
1.997,3.814697265625e-05
1.9975,0.00034332275390625
1.998,0.00034332275390625
1.9985,0.000152587890625
1.999,0.000152587890625
1.9995,0.00049591064453125
2.0,0.00049591064453125
2.0005,0.00019073486328125
2.001,0.00019073486328125
2.0015,0.000457763671875
2.002,0.000457763671875
2.0025,3.814697265625e-05
2.003,3.814697265625e-05
2.0035,-7.62939453125e-05
2.004,-7.62939453125e-05
2.0045,0.0003814697265625
2.005,0.0003814697265625
2.0055,3.814697265625e-05
2.006,3.814697265625e-05
2.0065,0.00030517578125
2.007,0.00030517578125
2.0075,0.000152587890625
2.008,0.000152587890625
2.0085,0.0003814697265625
2.009,0.0003814697265625
2.0095,0.0003814697265625
2.01,0.0003814697265625
2.0105,3.814697265625e-05
2.011,3.814697265625e-05
2.0115,0.00034332275390625
2.012,0.00034332275390625
2.0125,0.00026702880859375
2.013,0.00026702880859375
2.0135,0.000152587890625
2.014,0.000152587890625
2.0145,0.00057220458984375
2.015,0.00057220458984375
2.0155,0.0006866455078125
2.016,0.0006866455078125
2.0165,7.62939453125e-05
2.017,7.62939453125e-05
2.0175,0.00049591064453125
2.018,0.00049591064453125
2.0185,0.00019073486328125
2.019,0.00019073486328125
2.0195,0.00080108642578125
2.02,0.00080108642578125
2.0205,0.00011444091796875
2.021,0.00011444091796875
2.0215,0.00019073486328125
2.022,0.00019073486328125
2.0225,0.000152587890625
2.023,0.000152587890625
2.0235,0.00026702880859375
2.024,0.00026702880859375
2.0245,-3.814697265625e-05
2.025,-3.814697265625e-05
2.0255,-3.814697265625e-05
2.026,-3.814697265625e-05
2.0265,0.000762939453125
2.027,0.000762939453125
2.0275,0.00072479248046875
2.028,0.00072479248046875
2.0285,-7.62939453125e-05
2.029,-7.62939453125e-05
2.0295,0.00011444091796875
2.03,0.00011444091796875
2.0305,0.00049591064453125
2.031,0.00049591064453125
2.0315,0.000152587890625
2.032,0.000152587890625
2.0325,0.00019073486328125
2.033,0.00019073486328125
2.0335,0.000152587890625
2.034,0.000152587890625
2.0345,0.00080108642578125
2.035,0.00080108642578125
2.0355,0.00026702880859375
2.036,0.00026702880859375
2.0365,0.00011444091796875
2.037,0.00011444091796875
2.0375,3.814697265625e-05
2.038,3.814697265625e-05
2.0385,0.00026702880859375
2.039,0.00026702880859375
2.0395,-3.814697265625e-05
2.04,-3.814697265625e-05
2.0405,0.000152587890625
2.041,0.000152587890625
2.0415,-7.62939453125e-05
2.042,-7.62939453125e-05
2.0425,0.000152587890625
2.043,0.000152587890625
2.0435,0.00049591064453125
2.044,0.00049591064453125
2.0445,7.62939453125e-05
2.045,7.62939453125e-05
2.0455,0.00034332275390625
2.046,0.00034332275390625
2.0465,0.00026702880859375
2.047,0.00026702880859375
2.0475,-7.62939453125e-05
2.048,-7.62939453125e-05
2.0485,0.00064849853515625
2.049,0.00064849853515625
2.0495,0.000152587890625
2.05,0.000152587890625
2.0505,0.00011444091796875
2.051,0.00011444091796875
2.0515,0.000152587890625
2.052,0.000152587890625
2.0525,-7.62939453125e-05
2.053,-7.62939453125e-05
2.0535,0.00057220458984375
2.054,0.00057220458984375
2.0545,7.62939453125e-05
2.055,7.62939453125e-05
2.0555,0.00072479248046875
2.056,0.00072479248046875
2.0565,0.00041961669921875
2.057,0.00041961669921875
2.0575,0.0008392333984375
2.058,0.0008392333984375
2.0585,0.00034332275390625
2.059,0.00034332275390625
2.0595,0.0006866455078125
2.06,0.0006866455078125
2.0605,3.814697265625e-05
2.061,3.814697265625e-05
2.0615,0.0005340576171875
2.062,0.0005340576171875
2.0625,-0.0002288818359375
2.063,-0.0002288818359375
2.0635,-7.62939453125e-05
2.064,-7.62939453125e-05
2.0645,-3.814697265625e-05
2.065,-3.814697265625e-05
2.0655,7.62939453125e-05
2.066,7.62939453125e-05
2.0665,0.00026702880859375
2.067,0.00026702880859375
2.0675,0.00030517578125
2.068,0.00030517578125
2.0685,0.0003814697265625
2.069,0.0003814697265625
2.0695,0.00011444091796875
2.07,0.00011444091796875
2.0705,0.0002288818359375
2.071,0.0002288818359375
2.0715,0.0003814697265625
2.072,0.0003814697265625
2.0725,0.00011444091796875
2.073,0.00011444091796875
2.0735,0.00080108642578125
2.074,0.00080108642578125
2.0745,0.00034332275390625
2.075,0.00034332275390625
2.0755,0.00011444091796875
2.076,0.00011444091796875
2.0765,0.00019073486328125
2.077,0.00019073486328125
2.0775,0.00057220458984375
2.078,0.00057220458984375
2.0785,3.814697265625e-05
2.079,3.814697265625e-05
2.0795,7.62939453125e-05
2.08,7.62939453125e-05
2.0805,7.62939453125e-05
2.081,7.62939453125e-05
2.0815,-3.814697265625e-05
2.082,-3.814697265625e-05
2.0825,0.00049591064453125
2.083,0.00049591064453125
2.0835,0.000152587890625
2.084,0.000152587890625
2.0845,0.000152587890625
2.085,0.000152587890625
2.0855,0.000152587890625
2.086,0.000152587890625
2.0865,0.0005340576171875
2.087,0.0005340576171875
2.0875,0.00011444091796875
2.088,0.00011444091796875
2.0885,0.0003814697265625
2.089,0.0003814697265625
2.0895,0.0
2.09,0.0
2.0905,3.814697265625e-05
2.091,3.814697265625e-05
2.0915,0.0003814697265625
2.092,0.0003814697265625
2.0925,0.0006103515625
2.093,0.0006103515625
2.0935,0.00030517578125
2.094,0.00030517578125
2.0945,7.62939453125e-05
2.095,7.62939453125e-05
2.0955,0.0002288818359375
2.096,0.0002288818359375
2.0965,0.00034332275390625
2.097,0.00034332275390625
2.0975,7.62939453125e-05
2.098,7.62939453125e-05
2.0985,0.00026702880859375
2.099,0.00026702880859375
2.0995,7.62939453125e-05
2.1,7.62939453125e-05
2.1005,0.00041961669921875
2.101,0.00041961669921875
2.1015,0.00041961669921875
2.102,0.00041961669921875
2.1025,-7.62939453125e-05
2.103,-7.62939453125e-05
2.1035,-7.62939453125e-05
2.104,-7.62939453125e-05
2.1045,0.0
2.105,0.0
2.1055,0.00041961669921875
2.106,0.00041961669921875
2.1065,0.00041961669921875
2.107,0.00041961669921875
2.1075,0.0002288818359375
2.108,0.0002288818359375
2.1085,0.00026702880859375
2.109,0.00026702880859375
2.1095,0.0
2.11,0.0
2.1105,0.00030517578125
2.111,0.00030517578125
2.1115,0.00019073486328125
2.112,0.00019073486328125
2.1125,3.814697265625e-05
2.113,3.814697265625e-05
2.1135,0.0
2.114,0.0
2.1145,0.00026702880859375
2.115,0.00026702880859375
2.1155,3.814697265625e-05
2.116,3.814697265625e-05
2.1165,0.00057220458984375
2.117,0.00057220458984375
2.1175,0.00011444091796875
2.118,0.00011444091796875
2.1185,0.000152587890625
2.119,0.000152587890625
2.1195,3.814697265625e-05
2.12,3.814697265625e-05
2.1205,0.00019073486328125
2.121,0.00019073486328125
2.1215,7.62939453125e-05
2.122,7.62939453125e-05
2.1225,0.00011444091796875
2.123,0.00011444091796875
2.1235,0.00011444091796875
2.124,0.00011444091796875
2.1245,0.0003814697265625
2.125,0.0003814697265625
2.1255,0.00064849853515625
2.126,0.00064849853515625
2.1265,0.0002288818359375
2.127,0.0002288818359375
2.1275,0.00026702880859375
2.128,0.00026702880859375
2.1285,0.00030517578125
2.129,0.00030517578125
2.1295,-3.814697265625e-05
2.13,-3.814697265625e-05
2.1305,0.000152587890625
2.131,0.000152587890625
2.1315,3.814697265625e-05
2.132,3.814697265625e-05
2.1325,0.00026702880859375
2.133,0.00026702880859375
2.1335,0.0002288818359375
2.134,0.0002288818359375
2.1345,7.62939453125e-05
2.135,7.62939453125e-05
2.1355,-3.814697265625e-05
2.136,-3.814697265625e-05
2.1365,7.62939453125e-05
2.137,7.62939453125e-05
2.1375,0.0
2.138,0.0
2.1385,0.00091552734375
2.139,0.00091552734375
2.1395,0.0002288818359375
2.14,0.0002288818359375
2.1405,0.00072479248046875
2.141,0.00072479248046875
2.1415,7.62939453125e-05
2.142,7.62939453125e-05
2.1425,0.00034332275390625
2.143,0.00034332275390625
2.1435,7.62939453125e-05
2.144,7.62939453125e-05
2.1445,0.000457763671875
2.145,0.000457763671875
2.1455,0.000152587890625
2.146,0.000152587890625
2.1465,0.00034332275390625
2.147,0.00034332275390625
2.1475,-3.814697265625e-05
2.148,-3.814697265625e-05
2.1485,-0.0002288818359375
2.149,-0.0002288818359375
2.1495,-3.814697265625e-05
2.15,-3.814697265625e-05
2.1505,-7.62939453125e-05
2.151,-7.62939453125e-05
2.1515,0.00041961669921875
2.152,0.00041961669921875
2.1525,0.00030517578125
2.153,0.00030517578125
2.1535,0.000457763671875
2.154,0.000457763671875
2.1545,0.0002288818359375
2.155,0.0002288818359375
2.1555,0.00026702880859375
2.156,0.00026702880859375
2.1565,0.00011444091796875
2.157,0.00011444091796875
2.1575,0.00041961669921875
2.158,0.00041961669921875
2.1585,0.00034332275390625
2.159,0.00034332275390625
2.1595,-7.62939453125e-05
2.16,-7.62939453125e-05
2.1605,0.0006103515625
2.161,0.0006103515625
2.1615,0.00019073486328125
2.162,0.00019073486328125
2.1625,0.00019073486328125
2.163,0.00019073486328125
2.1635,3.814697265625e-05
2.164,3.814697265625e-05
2.1645,0.00034332275390625
2.165,0.00034332275390625
2.1655,0.0005340576171875
2.166,0.0005340576171875
2.1665,7.62939453125e-05
2.167,7.62939453125e-05
2.1675,0.00026702880859375
2.168,0.00026702880859375
2.1685,7.62939453125e-05
2.169,7.62939453125e-05
2.1695,0.00049591064453125
2.17,0.00049591064453125
2.1705,7.62939453125e-05
2.171,7.62939453125e-05
2.1715,0.000457763671875
2.172,0.000457763671875
2.1725,0.00034332275390625
2.173,0.00034332275390625
2.1735,0.00049591064453125
2.174,0.00049591064453125
2.1745,7.62939453125e-05
2.175,7.62939453125e-05
2.1755,0.0003814697265625
2.176,0.0003814697265625
2.1765,0.000152587890625
2.177,0.000152587890625
2.1775,0.00034332275390625
2.178,0.00034332275390625
2.1785,0.00049591064453125
2.179,0.00049591064453125
2.1795,0.0002288818359375
2.18,0.0002288818359375
2.1805,0.00011444091796875
2.181,0.00011444091796875
2.1815,0.00026702880859375
2.182,0.00026702880859375
2.1825,-3.814697265625e-05
2.183,-3.814697265625e-05
2.1835,0.00019073486328125
2.184,0.00019073486328125
2.1845,0.0003814697265625
2.185,0.0003814697265625
2.1855,0.00064849853515625
2.186,0.00064849853515625
2.1865,0.000762939453125
2.187,0.000762939453125
2.1875,-3.814697265625e-05
2.188,-3.814697265625e-05
2.1885,0.0
2.189,0.0
2.1895,0.00030517578125
2.19,0.00030517578125
2.1905,0.00030517578125
2.191,0.00030517578125
2.1915,0.0005340576171875
2.192,0.0005340576171875
2.1925,0.00011444091796875
2.193,0.00011444091796875
2.1935,0.00019073486328125
2.194,0.00019073486328125
2.1945,0.00064849853515625
2.195,0.00064849853515625
2.1955,0.00041961669921875
2.196,0.00041961669921875
2.1965,0.000152587890625
2.197,0.000152587890625
2.1975,3.814697265625e-05
2.198,3.814697265625e-05
2.1985,0.0006866455078125
2.199,0.0006866455078125
2.1995,7.62939453125e-05
2.2,7.62939453125e-05
2.2005,0.000152587890625
2.201,0.000152587890625
2.2015,7.62939453125e-05
2.202,7.62939453125e-05
2.2025,3.814697265625e-05
2.203,3.814697265625e-05
2.2035,0.000152587890625
2.204,0.000152587890625
2.2045,0.00072479248046875
2.205,0.00072479248046875
2.2055,0.00064849853515625
2.206,0.00064849853515625
2.2065,0.0002288818359375
2.207,0.0002288818359375
2.2075,0.00019073486328125
2.208,0.00019073486328125
2.2085,0.00034332275390625
2.209,0.00034332275390625
2.2095,0.00049591064453125
2.21,0.00049591064453125
2.2105,0.0005340576171875
2.211,0.0005340576171875
2.2115,0.0002288818359375
2.212,0.0002288818359375
2.2125,7.62939453125e-05
2.213,7.62939453125e-05
2.2135,0.0002288818359375
2.214,0.0002288818359375
2.2145,0.00026702880859375
2.215,0.00026702880859375
2.2155,3.814697265625e-05
2.216,3.814697265625e-05
2.2165,0.00030517578125
2.217,0.00030517578125
2.2175,0.0008392333984375
2.218,0.0008392333984375
2.2185,-0.00011444091796875
2.219,-0.00011444091796875
2.2195,7.62939453125e-05
2.22,7.62939453125e-05
2.2205,3.814697265625e-05
2.221,3.814697265625e-05
2.2215,0.000457763671875
2.222,0.000457763671875
2.2225,0.0006866455078125
2.223,0.0006866455078125
2.2235,0.00049591064453125
2.224,0.00049591064453125
2.2245,7.62939453125e-05
2.225,7.62939453125e-05
2.2255,0.00049591064453125
2.226,0.00049591064453125
2.2265,0.00034332275390625
2.227,0.00034332275390625
2.2275,7.62939453125e-05
2.228,7.62939453125e-05
2.2285,0.0003814697265625
2.229,0.0003814697265625
2.2295,3.814697265625e-05
2.23,3.814697265625e-05
2.2305,0.00034332275390625
2.231,0.00034332275390625
2.2315,-3.814697265625e-05
2.232,-3.814697265625e-05
2.2325,0.0005340576171875
2.233,0.0005340576171875
2.2335,0.0
2.234,0.0
2.2345,0.0005340576171875
2.235,0.0005340576171875
2.2355,0.0003814697265625
2.236,0.0003814697265625
2.2365,7.62939453125e-05
2.237,7.62939453125e-05
2.2375,0.00072479248046875
2.238,0.00072479248046875
2.2385,0.00019073486328125
2.239,0.00019073486328125
2.2395,3.814697265625e-05
2.24,3.814697265625e-05
2.2405,0.00041961669921875
2.241,0.00041961669921875
2.2415,-0.00011444091796875
2.242,-0.00011444091796875
2.2425,0.00034332275390625
2.243,0.00034332275390625
2.2435,-7.62939453125e-05
2.244,-7.62939453125e-05
2.2445,0.0006103515625
2.245,0.0006103515625
2.2455,-0.00011444091796875
2.246,-0.00011444091796875
2.2465,0.0002288818359375
2.247,0.0002288818359375
2.2475,0.00026702880859375
2.248,0.00026702880859375
2.2485,0.00072479248046875
2.249,0.00072479248046875
2.2495,0.00019073486328125
2.25,0.00019073486328125
2.2505,0.000152587890625
2.251,0.000152587890625
2.2515,0.00034332275390625
2.252,0.00034332275390625
2.2525,0.0003814697265625
2.253,0.0003814697265625
2.2535,0.00026702880859375
2.254,0.00026702880859375
2.2545,0.0
2.255,0.0
2.2555,0.00030517578125
2.256,0.00030517578125
2.2565,0.0
2.257,0.0
2.2575,0.00026702880859375
2.258,0.00026702880859375
2.2585,0.00011444091796875
2.259,0.00011444091796875
2.2595,0.00011444091796875
2.26,0.00011444091796875
2.2605,-7.62939453125e-05
2.261,-7.62939453125e-05
2.2615,0.00049591064453125
2.262,0.00049591064453125
2.2625,0.0003814697265625
2.263,0.0003814697265625
2.2635,0.0006103515625
2.264,0.0006103515625
2.2645,0.0003814697265625
2.265,0.0003814697265625
2.2655,0.0
2.266,0.0
2.2665,0.0005340576171875
2.267,0.0005340576171875
2.2675,0.0006866455078125
2.268,0.0006866455078125
2.2685,0.0
2.269,0.0
2.2695,7.62939453125e-05
2.27,7.62939453125e-05
2.2705,3.814697265625e-05
2.271,3.814697265625e-05
2.2715,0.0005340576171875
2.272,0.0005340576171875
2.2725,0.00034332275390625
2.273,0.00034332275390625
2.2735,0.00019073486328125
2.274,0.00019073486328125
2.2745,3.814697265625e-05
2.275,3.814697265625e-05
2.2755,0.0005340576171875
2.276,0.0005340576171875
2.2765,0.00019073486328125
2.277,0.00019073486328125
2.2775,0.0006103515625
2.278,0.0006103515625
2.2785,0.00011444091796875
2.279,0.00011444091796875
2.2795,0.00049591064453125
2.28,0.00049591064453125
2.2805,0.0009918212890625
2.281,0.0009918212890625
2.2815,-0.0002288818359375
2.282,-0.0002288818359375
2.2825,0.0006866455078125
2.283,0.0006866455078125
2.2835,-0.00011444091796875
2.284,-0.00011444091796875
2.2845,0.0009918212890625
2.285,0.0009918212890625
2.2855,-3.814697265625e-05
2.286,-3.814697265625e-05
2.2865,0.0006866455078125
2.287,0.0006866455078125
2.2875,0.00026702880859375
2.288,0.00026702880859375
2.2885,0.0003814697265625
2.289,0.0003814697265625
2.2895,-7.62939453125e-05
2.29,-7.62939453125e-05
2.2905,0.00041961669921875
2.291,0.00041961669921875
2.2915,-0.000152587890625
2.292,-0.000152587890625
2.2925,0.0006866455078125
2.293,0.0006866455078125
2.2935,0.00026702880859375
2.294,0.00026702880859375
2.2945,0.0
2.295,0.0
2.2955,0.00041961669921875
2.296,0.00041961669921875
2.2965,0.0006103515625
2.297,0.0006103515625
2.2975,-3.814697265625e-05
2.298,-3.814697265625e-05
2.2985,0.000152587890625
2.299,0.000152587890625
2.2995,0.0003814697265625
2.3,0.0003814697265625
2.3005,0.0009918212890625
2.301,0.0009918212890625
2.3015,3.814697265625e-05
2.302,3.814697265625e-05
2.3025,0.0006866455078125
2.303,0.0006866455078125
2.3035,-0.00011444091796875
2.304,-0.00011444091796875
2.3045,3.814697265625e-05
2.305,3.814697265625e-05
2.3055,0.00011444091796875
2.306,0.00011444091796875
2.3065,0.00049591064453125
2.307,0.00049591064453125
2.3075,3.814697265625e-05
2.308,3.814697265625e-05
2.3085,0.00019073486328125
2.309,0.00019073486328125
2.3095,0.000457763671875
2.31,0.000457763671875
2.3105,0.000152587890625
2.311,0.000152587890625
2.3115,0.00034332275390625
2.312,0.00034332275390625
2.3125,0.00019073486328125
2.313,0.00019073486328125
2.3135,0.00049591064453125
2.314,0.00049591064453125
2.3145,0.00011444091796875
2.315,0.00011444091796875
2.3155,0.00030517578125
2.316,0.00030517578125
2.3165,0.0
2.317,0.0
2.3175,0.0005340576171875
2.318,0.0005340576171875
2.3185,3.814697265625e-05
2.319,3.814697265625e-05
2.3195,0.00049591064453125
2.32,0.00049591064453125
2.3205,0.00072479248046875
2.321,0.00072479248046875
2.3215,0.0003814697265625
2.322,0.0003814697265625
2.3225,0.00072479248046875
2.323,0.00072479248046875
2.3235,0.00011444091796875
2.324,0.00011444091796875
2.3245,0.00026702880859375
2.325,0.00026702880859375
2.3255,7.62939453125e-05
2.326,7.62939453125e-05
2.3265,7.62939453125e-05
2.327,7.62939453125e-05
2.3275,0.0003814697265625
2.328,0.0003814697265625
2.3285,0.00049591064453125
2.329,0.00049591064453125
2.3295,7.62939453125e-05
2.33,7.62939453125e-05
2.3305,-3.814697265625e-05
2.331,-3.814697265625e-05
2.3315,-3.814697265625e-05
2.332,-3.814697265625e-05
2.3325,0.000457763671875
2.333,0.000457763671875
2.3335,0.00030517578125
2.334,0.00030517578125
2.3345,0.000457763671875
2.335,0.000457763671875
2.3355,0.00030517578125
2.336,0.00030517578125
2.3365,7.62939453125e-05
2.337,7.62939453125e-05
2.3375,0.00011444091796875
2.338,0.00011444091796875
2.3385,0.0006866455078125
2.339,0.0006866455078125
2.3395,0.00019073486328125
2.34,0.00019073486328125
2.3405,0.0
2.341,0.0
2.3415,0.00091552734375
2.342,0.00091552734375
2.3425,3.814697265625e-05
2.343,3.814697265625e-05
2.3435,0.00019073486328125
2.344,0.00019073486328125
2.3445,-0.00011444091796875
2.345,-0.00011444091796875
2.3455,3.814697265625e-05
2.346,3.814697265625e-05
2.3465,0.00019073486328125
2.347,0.00019073486328125
2.3475,0.00011444091796875
2.348,0.00011444091796875
2.3485,-0.000152587890625
2.349,-0.000152587890625
2.3495,3.814697265625e-05
2.35,3.814697265625e-05
2.3505,0.00095367431640625
2.351,0.00095367431640625
2.3515,-3.814697265625e-05
2.352,-3.814697265625e-05
2.3525,0.00087738037109375
2.353,0.00087738037109375
2.3535,7.62939453125e-05
2.354,7.62939453125e-05
2.3545,0.00026702880859375
2.355,0.00026702880859375
2.3555,3.814697265625e-05
2.356,3.814697265625e-05
2.3565,-3.814697265625e-05
2.357,-3.814697265625e-05
2.3575,0.00049591064453125
2.358,0.00049591064453125
2.3585,7.62939453125e-05
2.359,7.62939453125e-05
2.3595,0.0006103515625
2.36,0.0006103515625
2.3605,3.814697265625e-05
2.361,3.814697265625e-05
2.3615,0.00019073486328125
2.362,0.00019073486328125
2.3625,0.00011444091796875
2.363,0.00011444091796875
2.3635,0.0003814697265625
2.364,0.0003814697265625
2.3645,0.00057220458984375
2.365,0.00057220458984375
2.3655,0.00030517578125
2.366,0.00030517578125
2.3665,-3.814697265625e-05
2.367,-3.814697265625e-05
2.3675,0.00057220458984375
2.368,0.00057220458984375
2.3685,0.0003814697265625
2.369,0.0003814697265625
2.3695,-3.814697265625e-05
2.37,-3.814697265625e-05
2.3705,0.0003814697265625
2.371,0.0003814697265625
2.3715,0.0002288818359375
2.372,0.0002288818359375
2.3725,0.00011444091796875
2.373,0.00011444091796875
2.3735,0.00011444091796875
2.374,0.00011444091796875
2.3745,0.00041961669921875
2.375,0.00041961669921875
2.3755,0.00030517578125
2.376,0.00030517578125
2.3765,0.00034332275390625
2.377,0.00034332275390625
2.3775,7.62939453125e-05
2.378,7.62939453125e-05
2.3785,3.814697265625e-05
2.379,3.814697265625e-05
2.3795,3.814697265625e-05
2.38,3.814697265625e-05
2.3805,0.0003814697265625
2.381,0.0003814697265625
2.3815,0.00019073486328125
2.382,0.00019073486328125
2.3825,3.814697265625e-05
2.383,3.814697265625e-05
2.3835,3.814697265625e-05
2.384,3.814697265625e-05
2.3845,0.00026702880859375
2.385,0.00026702880859375
2.3855,0.00011444091796875
2.386,0.00011444091796875
2.3865,-3.814697265625e-05
2.387,-3.814697265625e-05
2.3875,7.62939453125e-05
2.388,7.62939453125e-05
2.3885,-3.814697265625e-05
2.389,-3.814697265625e-05
2.3895,0.000457763671875
2.39,0.000457763671875
2.3905,0.00030517578125
2.391,0.00030517578125
2.3915,3.814697265625e-05
2.392,3.814697265625e-05
2.3925,0.00011444091796875
2.393,0.00011444091796875
2.3935,0.00011444091796875
2.394,0.00011444091796875
2.3945,-3.814697265625e-05
2.395,-3.814697265625e-05
2.3955,7.62939453125e-05
2.396,7.62939453125e-05
2.3965,0.00041961669921875
2.397,0.00041961669921875
2.3975,0.00049591064453125
2.398,0.00049591064453125
2.3985,0.00049591064453125
2.399,0.00049591064453125
2.3995,0.00011444091796875
2.4,0.00011444091796875
2.4005,-7.62939453125e-05
2.401,-7.62939453125e-05
2.4015,-3.814697265625e-05
2.402,-3.814697265625e-05
2.4025,0.00030517578125
2.403,0.00030517578125
2.4035,0.0005340576171875
2.404,0.0005340576171875
2.4045,7.62939453125e-05
2.405,7.62939453125e-05
2.4055,0.000152587890625
2.406,0.000152587890625
2.4065,7.62939453125e-05
2.407,7.62939453125e-05
2.4075,0.00030517578125
2.408,0.00030517578125
2.4085,0.00064849853515625
2.409,0.00064849853515625
2.4095,3.814697265625e-05
2.41,3.814697265625e-05
2.4105,-3.814697265625e-05
2.411,-3.814697265625e-05
2.4115,7.62939453125e-05
2.412,7.62939453125e-05
2.4125,0.00064849853515625
2.413,0.00064849853515625
2.4135,0.00026702880859375
2.414,0.00026702880859375
2.4145,0.00011444091796875
2.415,0.00011444091796875
2.4155,3.814697265625e-05
2.416,3.814697265625e-05
2.4165,-7.62939453125e-05
2.417,-7.62939453125e-05
2.4175,0.000152587890625
2.418,0.000152587890625
2.4185,0.00034332275390625
2.419,0.00034332275390625
2.4195,0.00030517578125
2.42,0.00030517578125
